17003848.47
17098719.38
17129826.53
17136155.76
16848713.02
17151014.39
17092864.42
17397792.97
17003615.78
17142064.16
17056782.51
16933615.66
17014142.13
17034271.23
17013820.69
17002697.06
17056969.39
17334370.63
17148993.18
16929591.82
17005116.95
16833724.14
17011810.84
17065910.36
17308633.82
17181717.55
17009644.67
17135768.10
17155223.93
17061209.32
17035585.28
16800810.56
16876948.96
17144057.44
17066487.38
17067399.44
16833669.22
16898745.15
17101967.42
17075725.95
17079703.14
17367088.51
17218371.75
17014234.80
17084909.26
17055674.37
16889571.94
17010596.36
17127929.33
17071386.70
17059568.95
17028496.72
16617562.71
17113425.61
17053420.24
17056097.82
17317138.28
16996601.06
16928309.10
17064082.85
17054406.30
17056528.53
17124208.21
17084925.59
17068217.00
17153132.31
17257325.77
17148227.13
17012422.37
17042420.20
16689850.97
16970871.98
16717990.58
16850391.98
17132888.18
17054293.94
16758730.05
16916432.62
17464255.18
17143022.80
17026949.55
17141283.62
17108176.42
17135043.63
16849436.51
17218170.16
17170405.36
17049635.61
17073766.93
17038763.77
17034973.64
17018485.71
16977249.69
16960668.58
16962360.58
16994125.61
17001594.64
16998328.84
17020459.91
17014207.76
16990615.37
16742156.86
16883187.96
17010841.66
16927478.38
17258285.09
16679112.99
17134734.42
16968818.12
16976495.64
17002611.90
16994706.66
16545675.50
16765484.73
16842534.09
16843303.88
17015914.29
17162803.78
17088269.38
16696770.92
16933327.32
17107347.58
17041794.09
17056682.68
17051517.70
17038360.44
17041174.22
17046825.22
17042245.50
17044688.31
17024843.55
17022920.16
17029677.05
17035824.47
17052135.18
17331823.59
17117827.01
16927473.52
17002777.91
16998977.34
17200826.44
17090218.64
16949769.39
17027306.30
17033020.74
16830119.13
16837117.08
17163439.15
17018262.08
17073821.08
17101694.94
17015879.11
17036074.40
17021521.75
17042346.53
17032434.59
17352425.51
17220457.30
16980693.45
17071190.53
17093124.72
17066423.67
17062271.38
17061231.00
16777039.45
16982198.70
17206377.67
17013639.01
17009281.22
17075120.68
16954253.00
16971469.25
17232174.43
17004962.63
16937565.05
17190569.41
17250965.36
17017101.91
16962081.25
16999077.41
16974583.67
17152613.23
17116933.40
16971795.02
16985066.53
16999506.15
17021216.43
17024199.00
16677950.09
16934542.77
17094732.90
16976437.72
17076474.74
17049995.64
16691867.62
16912792.68
17077368.89
17016118.15
17049745.10
17048812.73
17021462.91
17019972.23
17025985.19
17035879.48
17066409.41
17044872.59
17018790.25
17029713.20
17055922.40
17027494.14
17015726.89
17115733.47
17142578.48
16983112.68
16975101.09
16979152.17
16981098.90
17071345.67
17024832.56
17136343.85
17095254.83
16973750.94
16968025.70
16985798.32
16531692.80
16887524.60
17117233.16
16996403.51
17008179.32
17034536.73
17003554.79
16980565.68
16998451.54
17000211.65
16992378.76
16675413.70
16910172.48
16888010.01
17076938.30
17182757.96
17026764.43
17058044.79
16894171.91
16683383.91
16705973.72
16990100.38
17209747.13
17094250.70
17015284.17
17056003.36
17040053.57
17139277.50
17072258.84
16990352.32
16995409.44
17008760.93
16997679.10
17279816.37
17154674.26
16940855.16
17054364.29
16680078.83
16896065.92
17414907.71
17194641.01
16969218.30
17172283.57
17071696.10
17275103.95
17065141.24
16718711.46
16900563.32
17079892.55
17053336.28
17059036.70
17062194.30
17042781.66
17035392.18
17086991.27
17104239.09
17092255.57
17104999.90
17122825.43
17119752.38
17109801.22
17104890.97
17078171.54
17161731.42
16878588.97
16795361.63
17070210.64
17010703.15
17190600.67
17204972.92
17002340.58
17008420.31
16989288.30
16946602.24
16995067.32
16983650.91
17052072.58
17075518.14
17021374.63
17069834.24
17056035.76
16665847.51
17041882.25
17059179.41
17216453.16
17150004.86
16932346.47
17003995.57
17054594.38
17092996.22
17093529.64
17049640.56
16996226.68
16722276.07
17023880.68
16989672.79
16947489.00
17045782.46
17056629.90
16997951.93
17010652.43
17029318.30
17315080.16
17280686.69
17037508.66
17047112.75
17049279.79
17178346.09
17025009.09
17013145.51
17027319.94
16983040.76
16977170.21
16975514.86
16972308.37
16919457.01
16922478.88
16918483.23
16912370.28
16914605.46
17014776.04
17068191.66
16655373.33
16957477.64
16638775.81
16776679.72
16752047.44
16843557.87
17167954.98
17040114.25
17005585.18
17053303.29
17044236.40
17104118.90
17035730.05
17273309.45
17247129.01
16834514.34
16964454.92
17078420.05
17022490.18
17025946.15
17069302.67
17070750.96
17059971.38
17288340.67
17135313.59
16987881.67
16992701.76
16984343.16
16964905.39
16959352.26
16961496.39
16966482.62
16979473.03
17001162.18
17004844.87
17037008.03
17319085.67
17176046.02
16908416.11
17131367.26
17079746.00
16957583.57
16966006.82
16969148.38
17043020.51
17009075.41
16984515.14
17365314.03
17061072.93
16915839.57
17006053.28
16992274.76
16974935.51
17000790.72
17038246.20
16999532.44
17007310.28
17019992.53
17053029.70
17065236.82
16716315.60
16993721.18
17138727.68
17068603.17
17001603.75
17023051.05
17012538.65
17002036.13
16991907.18
16974223.45
16967588.08
16964351.40
16959095.81
16965849.92
16980322.70
16996976.66
16764873.10
16885088.40
17070192.58
17004327.05
16656906.70
16894039.00
17192138.22
16860390.90
16555209.41
16843778.08
17391812.60
17139246.43
16941576.09
17009166.40
16997886.53
16827950.30
16896699.24
16716084.28
16879410.77
17284424.26
17160845.97
17008721.45
17088269.69
16446474.25
16902154.32
17504320.17
17336300.29
17032114.20
17030774.50
17066707.45
17185790.80
17101854.57
17213070.98
17135473.95
16993624.44
16723668.19
16864517.82
17081169.22
16998752.52
17018675.34
17036279.03
17006721.43
16970039.75
16993230.61
17021845.31
17009543.36
17001596.86
17108789.14
16852447.54
16750597.19
17054642.73
17019082.85
17015387.94
16961316.43
16971188.75
17003698.24
16985044.79
17090056.49
17080974.44
16987145.95
17057788.75
17094814.61
17076863.93
17050291.69
17126158.34
17037945.02
16960384.37
16960533.01
17046454.71
17055814.80
17052424.71
17044002.24
16875697.12
16881546.07
17194365.61
17110032.86
17185472.47
17349978.53
16975778.43
16999223.46
17014647.56
17023960.62
17024049.24
17021369.73
17043728.62
17052487.67
17055378.91
16788660.02
16686766.36
16899193.23
17040123.69
16978721.90
16719105.06
16842968.58
17281598.56
17052712.61
17020626.60
17106479.34
17090480.12
17070056.75
17387169.94
17153385.14
17016460.67
17100070.91
17244046.82
17155510.52
17103410.74
17186247.13
16674468.45
16889822.41
16607674.62
17114254.87
17156141.64
17151436.56
17155032.43
16984000.15
17024922.85
17007921.82
16974024.43
16762878.07
16905964.60
16979294.20
16928735.87
16951388.33
16959050.54
16941787.17
17000986.41
16842028.42
17014354.19
17067789.53
17183237.52
16979770.06
16948995.26
17146322.46
17128001.25
17023758.40
16761495.92
16984016.34
17098189.17
16775277.59
16952852.29
17141651.41
17058463.92
17294501.63
17079638.71
16910355.88
16849898.85
16743004.73
16961775.34
17050775.12
17003772.74
17139872.89
16876240.39
16845027.27
16986998.68
16908943.44
16871268.43
16897066.27
16946186.36
16972087.20
16985010.79
16797062.59
16867370.78
17091765.08
16988689.17
16961655.31
16966633.18
16945741.10
16894232.83
16877553.56
16887844.38
16896331.58
16955113.54
17024060.82
16959690.18
16736149.63
17138982.29
17215754.72
17043795.87
17368628.40
16806111.67
16960497.41
17048643.37
17055283.77
17073874.65
17067633.83
16760523.06
16953992.09
17300039.79
17134449.53
17011775.31
16739703.05
16976399.74
16714837.16
16817710.49
17142271.40
16951076.93
16846735.67
16810434.26
16773400.73
16840691.95
16827112.91
16824873.09
16879309.34
16923708.88
16896694.29
16859609.33
16835236.04
16877786.71
16950276.67
16704711.51
16953815.54
16823846.88
16948134.17
17198521.38
17106054.67
16714017.61
17396565.59
17261201.96
17014624.61
17069012.89
17004931.46
16809324.72
16919575.50
16878390.24
16955392.25
17286054.87
17113135.10
16796255.68
16990488.01
17169275.85
17057648.55
17107007.24
17097343.63
17111683.30
16966552.86
16961746.39
17090195.55
17044840.92
17194619.10
16857549.05
17155058.70
17123802.75
17178094.56
16783335.21
16831718.39
17044219.52
16926470.99
16906246.96
16902716.93
16963420.39
16888501.31
16551672.58
16754998.45
16969252.90
16906207.12
16976832.93
17297780.78
17143333.58
16704133.03
16642077.54
16901385.23
16695948.89
16937553.71
17092196.94
17093041.30
17142282.75
17130068.76
17062856.71
16799853.62
16798710.18
17061533.92
16972806.78
16775397.74
17048775.77
17143287.72
16921079.06
16783215.88
17016879.86
17123377.67
16880723.34
16975016.31
16926411.90
16955719.04
16723448.77
16849937.20
17031815.52
16946228.64
16937281.40
16996869.92
16991180.50
16988925.43
16787747.83
16801864.63
16949406.83
16948483.43
16932893.66
16883166.89
16932877.74
16998066.48
17007048.85
16998906.68
17292610.02
16928903.11
16915116.55
17055601.18
17018236.51
17011501.87
17034016.66
17080750.35
17099072.09
17089674.75
17044138.51
17069272.58
16863761.38
16902139.29
17116224.87
17048992.43
17046035.49
17027176.73
17029027.00
17029207.56
17150990.41
17064256.89
16936714.88
16970291.88
16916293.13
16866751.12
16911608.66
16859530.66
16858280.04
16855970.60
16864262.05
16745868.53
16904354.31
17051292.50
16971211.47
16951684.00
16948641.79
16548913.64
16759994.65
17172678.18
16953988.72
16879665.18
16703520.06
16861904.20
17078060.28
17076651.60
16977299.89
16984352.88
17056350.29
16992563.79
16880583.17
16973301.52
16889528.52
16852224.02
16761660.66
16887573.02
16796630.02
16888149.42
17445095.39
17043666.52
16990362.63
17402834.20
17038898.84
16987787.20
16684877.51
16988659.51
17019667.45
16958493.61
16736258.49
16891996.38
17075287.09
17016002.03
17035311.29
17062006.10
17134175.46
17033957.75
16983115.51
17074663.94
17101130.01
17056024.82
17016608.11
17055909.64
17456700.90
17241154.59
17004110.74
16812274.93
16862690.22
17115605.68
17014505.03
17261194.83
17099041.80
16932444.44
17033892.39
17041489.76
17039795.55
16839523.79
16953019.86
17061036.60
17040580.43
17283409.73
16837720.10
16893206.88
17260001.98
17070873.90
16831931.38
16975057.81
16996762.16
16978983.75
17000091.45
17008432.31
17025103.05
17049375.57
16704873.62
16842311.65
17149264.87
17038306.83
17007787.55
17007421.76
16996673.69
17171592.50
17111043.11
16967816.06
17008057.13
17002442.65
17006563.60
17027929.59
17049602.23
17031271.11
17057717.62
17043380.65
17027384.63
17050214.30
17043913.03
17564888.93
17294162.51
16903163.40
17241900.67
17162680.95
16959784.94
17032608.69
16994888.27
16957485.36
16957635.15
16938016.30
16922648.67
16836103.37
16913218.90
16978448.63
16992032.99
17016345.20
16662351.63
16898538.35
16813846.79
16781640.80
17017878.14
16970289.03
16971235.94
17018347.07
16984983.06
16914120.27
16943122.87
17022618.71
17050638.44
17019461.26
16993266.18
17016241.91
17023755.88
16707350.71
16785148.35
17102895.52
17046731.03
17083567.99
17041317.67
16996452.90
17010218.37
16528606.78
16663340.87
17236057.94
17012424.78
16956026.43
17145926.85
16989851.52
16742503.91
16862460.00
16983676.51
16928534.01
16981229.63
17016013.34
16989859.64
16991956.41
17026508.43
17060068.50
17080477.74
17231614.11
17509227.51
17168206.46
16652480.37
16796933.85
17140382.30
17047942.14
16952080.34
17037697.37
17246860.08
17087802.12
17005181.04
17096952.70
17031831.92
16940631.24
16759253.86
16914005.63
17054653.93
17286556.82
17169929.69
16942504.60
17009182.93
17021100.94
17042563.65
16821349.56
16995836.91
17113264.75
17017091.06
17042339.54
17081446.38
17006874.08
16958556.08
16967321.89
17017310.15
17026098.96
17018791.94
17012264.77
17360166.44
17080503.43
16978968.89
17024433.63
17026695.15
17014096.18
16924953.37
17003083.89
17060129.09
16989826.22
16971947.51
16947189.34
16909955.30
16949831.58
16779917.98
16824577.11
17019188.71
16992918.94
17066459.14
17101751.19
17123486.55
17147747.21
17072470.27
17029650.84
17001724.52
17028582.67
16908036.66
16964208.89
17333737.30
17075501.91
16996639.13
17043567.92
16993736.92
16928963.61
16877410.00
16886723.57
16913368.71
16926522.47
16913405.70
16903610.44
16920699.70
16930583.48
16932305.82
16930910.55
16935161.32
16949123.88
16955497.03
16930046.19
16971954.56
16976116.13
16998326.24
17009683.28
16960278.41
17002557.86
17001316.74
16942875.60
16991664.26
16971403.46
16957293.58
16971054.70
17215742.02
17132946.27
16539901.40
16930929.65
17068740.04
17035451.90
17040750.92
17040090.66
17030055.07
17165540.33
17142282.05
16928049.58
16969847.24
16953432.70
16951666.59
16956837.40
16938248.76
16928321.36
16940272.11
16993703.26
16955772.15
17143111.99
17066140.02
16914748.44
16994887.34
17003152.67
17002381.98
16959291.55
16915085.31
16922026.12
16893069.36
16934075.63
16934141.84
16958421.23
16686135.09
16778693.12
16993272.37
16941333.11
16942767.57
16956712.06
16957623.58
16974155.37
16965157.83
17003297.50
16996916.59
17232757.25
17218362.68
16958334.40
16949892.27
16991722.15
16974354.01
16955591.11
16962165.15
16905602.25
16894314.66
16938440.35
16935066.74
16897601.56
16888727.05
16913961.59
16761943.47
16812596.83
16990427.55
16964073.75
16941330.88
16957396.88
16964213.23
16958868.84
16963666.20
16956982.69
16943035.90
16935818.40
16957439.70
16953177.47
16898651.00
16940745.98
16940173.95
16944695.98
16660945.89
16839913.10
17181306.90
16998465.48
16908484.30
16583663.83
16371681.12
16819725.10
16953793.32
16863338.09
16881629.74
16885323.34
16920606.50
16961915.52
17234339.47
17025271.96
16922920.31
16931988.25
16502362.38
16839485.62
16868177.18
16853951.45
16816587.66
16793293.62
16863472.77
16836311.00
16823258.37
16859036.95
16866689.34
16898413.64
16851765.93
16846989.83
16852299.84
16873297.16
16941112.58
17017387.79
16959918.77
16605080.86
16461731.84
16810224.24
16973378.44
16940697.53
17003891.31
17034499.54
17036989.58
16990772.60
16902846.96
16852039.91
16787166.05
16493519.39
16850434.88
16849382.62
16645847.73
16702476.60
16468430.99
16629849.27
17059566.32
16784944.66
16641376.94
17017253.21
16843532.00
16676887.87
16832115.61
16811284.53
16829308.22
16911120.23
16875824.85
16849575.38
16599646.34
16960091.60
16926929.50
16875584.43
16917196.14
17041630.68
17125732.28
17312405.23
17290327.55
17070951.11
17054446.94
16983330.68
16990796.53
17008484.49
17027046.01
17066874.60
17123404.75
17371013.03
17119554.64
17005962.94
17055635.81
17403783.58
17211229.91
16960354.85
16949760.59
16949069.00
16963773.32
16939351.30
16763123.67
16937842.56
17053473.56
16909843.36
16931678.04
16737232.64
17022975.24
17034682.24
16833258.81
16921103.09
16915085.70
16886048.99
16917039.04
17184648.66
17099760.96
16939113.46
16992121.42
16976970.03
16937610.72
17145692.86
17023944.10
16629084.62
16846915.00
16620505.41
17030560.22
17266476.67
17074417.74
16657101.98
16983879.20
17159700.29
16914982.01
17380281.88
16990621.77
17124920.42
16828228.35
16765924.47
16822384.39
16911891.09
16960943.98
16943374.24
16912661.65
16552190.01
16708960.41
16993354.89
16666095.95
16722127.73
16976909.24
16935048.94
16949146.99
16962705.59
16954734.69
16988931.58
16935473.42
16921543.94
16908346.46
16845917.96
16866213.63
16871057.88
16814398.20
16774631.37
16820353.12
16891038.20
16859007.35
16866967.28
16873590.73
17071601.74
17063550.54
16916798.63
16975072.21
16946922.03
16889732.38
16920037.25
16939304.67
16905755.88
16845967.38
16886807.45
16897920.35
16884954.86
16861194.23
16880338.02
16907615.40
16876211.30
16847124.38
16770169.00
16745528.49
16778110.22
16737201.63
16720467.87
16716240.69
16567098.14
16654595.87
16942419.15
16803211.66
16692462.16
16807582.51
16805143.80
16793493.48
16819119.04
16745162.85
16757075.11
16555473.26
16860581.94
17115846.77
17048346.56
17039366.56
16982253.95
16889975.54
16900161.92
16946395.94
16909877.52
16881568.58
16893826.50
16876165.41
16877998.00
16953955.00
17028460.46
17075862.50
17075310.22
17123194.55
17005807.48
16854749.74
16826572.09
16813767.35
16630399.16
16695262.64
16311880.81
16394849.62
16824103.16
16718379.64
16668993.51
16653972.37
16393110.79
16500401.81
16626273.38
16543623.72
16590476.26
16822509.15
16814482.41
16624475.63
16632053.53
16626678.61
16692939.52
16732193.58
16792729.43
16883578.73
16958010.93
17069443.46
16727595.71
16697334.46
17130261.82
17128936.28
17404431.78
17118430.03
17100376.76
16928795.52
17232396.26
17282680.22
17064473.91
17083639.27
17067881.95
17303814.80
17087503.08
16909464.59
16967265.17
16826741.77
16822172.29
16884583.26
16827727.84
16813975.16
16803441.26
16832931.15
16812662.26
16796440.52
16763165.30
16823186.96
16709695.82
16625104.31
16711477.45
16594838.29
16507837.17
16710957.18
16572552.77
16375480.94
16451185.19
16433296.62
16692690.25
16699487.61
16526759.43
16741146.10
16834069.90
16283923.91
16200798.96
16567703.66
16550150.34
16666296.82
16639183.90
16527772.99
16663986.64
16967816.83
16933110.77
16718107.78
16681225.64
16734082.93
16752246.92
16802756.91
17273223.99
17292844.38
16692416.47
16966047.03
17039525.23
16931484.28
16546245.52
16818004.56
16621946.40
16561479.32
16875830.66
16785355.42
16829289.21
16898244.71
16940836.36
16921459.53
16840565.01
16743251.52
16689491.79
16424231.61
16664642.04
16739134.33
16573888.68
16550250.53
16474213.41
16556586.77
16698288.87
16762633.34
16841511.28
16807235.16
16753872.49
16810112.70
16833481.33
16799961.88
16777217.34
16718670.82
16604206.33
16538875.18
16489707.71
16462356.56
16493708.93
16347571.38
16312256.19
16512312.81
16469621.37
16466038.76
16420694.41
16551036.72
16588672.51
16620617.36
16697529.99
16838373.37
16890674.09
16871070.17
16867046.53
16835842.21
16871798.81
17095963.58
16981783.96
16947966.02
16878665.78
16817487.27
16905634.66
17015392.69
17106542.53
17146759.02
17132724.00
17271599.74
17203293.57
17031055.58
16969247.12
16520910.81
16548250.58
16615832.51
17077750.89
16988112.12
16764954.97
16816771.69
16883240.62
16941782.10
16734877.11
16719085.71
16837734.05
16743183.81
16377256.35
16640539.93
16639254.83
16569479.47
16533566.07
16534482.79
16298309.90
16384655.87
16647124.97
16618789.86
16693521.02
16817812.89
16893697.82
16633450.40
16812998.72
17078989.78
17040527.21
16921169.30
16987960.22
17133360.33
17054188.38
17071052.37
17044468.51
16856372.00
16308327.80
16333262.14
16566496.39
16439060.52
16419844.67
16442561.54
16468352.08
16655959.93
16369195.20
16458281.25
16526914.45
16670207.92
16547642.30
16431689.80
16231952.92
16426843.30
17039400.73
16870461.45
16874913.31
17109136.76
17113386.13
16928517.97
16251357.17
16656899.41
16413863.09
16757275.29
17225683.69
17145609.25
17135248.36
16768474.96
17062400.99
17341128.46
17507086.62
17550159.48
16900620.69
16684434.83
16984998.94
16973478.16
16812005.00
16902249.37
16815088.10
16573796.62
16707378.85
16718319.69
16606395.29
16334466.31
16526945.15
16759277.57
16505429.17
16618489.78
16631965.73
16634418.01
16635088.33
16724806.49
16247754.86
16155163.92
15999107.19
15797977.33
16148942.93
15862044.42
15429491.24
15526917.84
15435112.02
15748337.44
16165041.29
16476096.05
15892074.65
16152770.44
16387437.21
16310061.83
16435084.76
16637104.74
16971801.44
17200374.57
17676298.56
17613093.12
17707602.50
17780274.74
17928333.11
18085920.54
18246853.44
17908030.58
17725049.91
17955169.49
17430647.40
17115707.68
17143417.43
17268986.85
17293068.72
17315462.20
17205529.39
16988662.73
16935093.18
16876226.63
16840674.23
16847996.53
16780442.51
16704116.06
16255154.73
16654700.73
16538717.33
16533596.72
16409766.69
16257781.96
15810122.48
16022711.73
16299331.04
16081152.96
16406498.27
16461408.55
16632869.89
16339471.85
16470561.93
16958559.09
17061884.34
17223859.68
17286190.10
17145070.90
17063238.72
16804180.44
16663333.61
16549781.79
16560042.28
16869406.96
16857563.13
17034518.39
16921277.60
16597366.53
16518656.74
16401389.20
16286905.00
15998639.32
16105035.15
16574864.17
16793265.70
17040724.56
17094296.67
16996351.91
16716529.11
16637946.43
16744150.60
16793261.59
17126181.30
17110196.35
16938788.87
17014228.39
17057255.83
16899989.51
16407315.96
16676633.26
15940785.26
16308758.64
16334980.48
16321440.48
16766093.76
16227628.83
16218131.72
16579783.15
16687803.35
16483315.17
16566338.40
16382557.41
16391539.54
16150737.62
16356734.89
16124416.83
16457219.32
16326402.78
16459275.70
16456236.66
16184114.47
16128948.18
16161154.73
15968208.70
15848655.54
15935802.49
16312422.16
16515158.08
16642767.41
16661657.35
16600967.24
16587421.76
16677221.29
16325172.90
16447453.46
16630360.33
16958031.74
17479794.47
17385609.54
17295912.30
17500827.16
17368291.43
16957303.26
16308119.71
16738095.06
16834035.58
16535184.58
16464566.84
16699560.31
16761323.34
16635348.28
16534357.05
16349181.61
16153042.54
16070125.75
16187066.85
16191255.76
15873618.78
15956833.64
15860062.47
16246945.99
16621600.34
16813877.10
16992822.43
16632946.22
16843297.16
17060548.23
17054895.90
17151323.29
17126907.38
16876188.51
16471438.90
16615806.12
16474542.63
16395556.08
16475075.86
16430202.23
16522103.59
16250395.10
15925677.77
15887047.00
15753683.41
15713796.73
15859695.29
15946930.32
15932604.99
15609345.27
15834008.86
16212701.68
16277539.82
16380460.00
16413785.60
15996333.50
15970597.60
16603729.35
16118949.34
16445185.36
16581855.69
16509998.70
16841554.99
16932890.47
16707891.80
16613003.00
16795061.45
16833366.15
16761084.89
16685284.61
16170940.03
16710698.37
16763315.70
16354244.18
16181733.35
16240623.86
16195121.27
16313582.93
16430652.04
16577958.03
16636859.81
16422392.30
16354786.63
16408362.27
16427518.28
16454525.38
16609061.93
16614031.57
16482410.68
16473024.78
16364543.58
16949358.40
17300205.78
17000288.66
17021549.35
16799522.16
16699575.41
16842690.75
16863883.26
16903799.95
16857468.72
16692330.97
16446448.05
16734669.05
16740729.17
16366482.88
16325682.47
16089265.66
16611072.80
17268565.86
16851708.81
16450043.48
16517601.82
16254651.96
16224978.46
16081481.84
16074610.39
16162009.87
16444787.77
16038232.63
15779798.06
15645962.34
15477248.50
15330951.60
15446038.49
15880952.40
16173779.11
16185304.10
16421475.66
16588160.18
16585433.55
17043684.68
17239972.02
17407598.43
17683650.56
17578370.00
17452108.17
17384654.35
17112640.58
16457933.67
16856184.29
17785133.30
16875855.03
16662472.48
17188559.76
16527516.29
16192765.71
16286545.40
15872556.52
15327905.26
15386911.98
15455408.97
14867691.75
14970924.15
15072991.55
15255598.08
15728705.47
16383175.15
16409710.75
16611898.71
16821964.12
16949492.04
17161406.14
16999500.86
16870926.51
16524039.92
16534633.15
17128475.21
16696335.27
16421554.55
16632844.29
16267833.83
16176199.35
16461458.26
16537983.66
16917045.00
16728803.54
16581015.04
16653207.63
16610279.98
16864166.40
17044746.30
17055211.82
17231477.84
17061650.93
16781456.35
16547694.95
15973734.29
15798591.69
16018149.79
15829477.84
15588634.52
15646064.99
15448045.97
15004603.14
14881142.12
15082040.80
14856654.51
14878586.15
15504268.87
16302661.47
16736808.17
16611902.99
16736453.43
17311605.19
16980516.61
17481062.56
17232033.19
16706105.35
16874545.02
17143139.06
17171962.86
17155524.76
17100942.07
17022689.91
16904545.66
16948969.96
16822596.11
17272380.90
17463637.07
17243413.12
17107549.15
17124226.06
16917580.81
16647795.36
16438996.73
15726422.85
15876496.93
15806579.75
15628293.55
15915002.16
16198340.77
16299391.20
16449885.19
16733239.44
16988595.38
17039517.70
17066952.85
16642947.73
16806306.63
17027496.09
16456998.29
15988041.57
16033163.71
15957464.13
15999585.69
16003529.03
15956886.93
15231170.90
15442322.19
16379476.10
16639323.35
16430735.51
16675503.94
17051413.09
17032128.62
16992959.20
16887497.46
16931928.38
16905340.72
17190474.69
17131385.15
16840063.36
16780287.28
16107652.47
16638370.86
16332524.59
16088759.90
15980721.92
15694792.56
15505589.85
15070672.56
15461287.13
15424435.71
14942932.40
14840901.88
14963818.07
15172013.12
15306559.59
15174967.22
15118103.49
14871505.25
15260027.33
15815929.88
15886733.39
16266587.75
16722125.23
16492716.02
16585916.89
16745360.15
16399655.60
16233277.78
16469018.30
16572991.76
16365324.03
16678255.51
16831974.74
16734120.94
16853758.43
16863068.86
16722138.83
16560075.03
16601949.23
16488565.59
16240942.12
16447676.04
16732496.49
16638715.11
16516993.94
16417138.41
16434672.31
15985921.87
15902524.28
16011261.12
15828176.38
15438910.43
15442021.53
15410378.39
15619936.22
15712744.77
15726228.16
15919221.38
16162124.71
16272215.76
16003840.08
16231472.19
16388265.11
15890978.16
16100239.95
16016237.75
15632109.01
15997957.54
16109195.82
15374954.02
14756124.48
15197050.03
15577576.33
15305874.92
15818513.54
16260321.86
16021169.45
15965856.14
16414403.58
16507836.00
16333895.90
16527210.86
16373384.59
16228078.92
16079683.15
16521424.38
16628123.83
16917346.07
17163870.23
17410555.14
17441723.62
17287214.83
17130397.47
17349966.05
17366788.10
17113403.87
17021677.17
17137732.58
16357780.29
16565943.82
16940271.10
16850120.89
16744340.84
16558308.75
16416307.22
16306231.94
16006907.07
16086767.30
16489286.25
16177112.16
15896992.61
16382699.56
16885853.82
16502211.07
16103436.64
15968086.39
15692231.78
15703425.29
15854288.17
16018299.73
16082186.24
16077365.07
16060249.72
16143910.17
16238979.15
16151983.89
16066980.46
16066484.88
15971319.10
15670822.01
15876442.03
15782041.94
15595912.22
15813094.91
15975078.19
16105953.51
16205881.27
15895401.93
16476620.74
16193596.02
16111111.14
16253244.51
15920252.29
15804312.76
15836331.86
15935855.62
16013356.57
15904363.25
15765960.99
15926085.89
16202328.57
16379766.37
16401539.87
16731820.96
16463774.57
16654193.52
16667207.45
16322367.01
16497905.63
16722133.48
16524465.35
16384589.29
16516967.00
16471356.13
16741560.99
16101129.40
16711243.18
16282227.17
15565312.98
15599232.80
15739271.31
15917673.47
16277270.60
16408660.59
16376229.71
16254050.85
16138343.13
15966544.19
15912483.25
16264596.09
15742990.65
15066718.08
15154627.30
14843419.93
14696594.88
14833691.59
14933326.52
15303660.32
15692054.36
16075438.49
15941241.13
15905988.86
16123446.75
15627729.90
15449828.61
15417073.69
15611823.86
16368805.34
16712041.02
16571107.32
16458783.14
16471499.80
16412383.51
16105012.31
15968288.45
16245228.07
16199494.82
15869486.29
16154361.57
16067556.28
14825812.71
14857478.79
15853617.20
16382052.66
16481249.92
17096487.76
17101937.75
16798858.64
16859472.34
16883275.30
16708972.77
16421928.63
16112189.46
16030879.70
15704187.43
15093892.29
14775732.70
15033929.92
15347271.91
15768751.34
15820843.83
15620087.28
15436058.84
15367416.38
15366757.33
15441578.20
15746272.22
15971158.47
15976364.24
16033933.54
16147331.41
16279083.80
16183381.23
16434483.48
16753271.36
16494352.13
15978471.51
15713341.29
16099619.43
16013760.91
16025904.31
16281009.37
16559189.95
16350284.81
15963110.68
16170255.78
16393445.63
16704080.56
16918226.24
17067946.27
17145413.54
16955855.54
16682974.48
16480439.51
16315612.76
16334874.11
16469375.55
16585824.10
16605929.35
16404797.37
16218013.88
15830894.79
16094873.83
16334943.50
16651497.08
16617715.25
16440110.61
16327684.29
16233481.86
16219261.14
16173569.46
16136966.01
15877919.42
15566114.93
14962034.48
14892084.87
14592584.54
14736315.97
15325994.69
15461100.83
15420607.91
15545049.94
15656462.45
16455018.74
16212265.65
16243758.98
15969855.39
16109725.92
16485829.77
16662081.49
16770930.99
16558047.14
16292019.90
16506842.99
16573029.38
16515146.19
16439701.36
16379302.51
16107562.10
15962061.57
16023830.18
16350388.63
16495580.18
16208493.17
16056993.53
15861142.65
15338656.21
15246126.67
15083252.07
15459514.83
15719561.90
15703248.94
15659135.82
15476140.43
15433752.98
14979227.23
14904741.59
15219666.66
15399485.09
15565810.64
15623831.49
15393887.10
15591893.43
16128995.47
16348411.64
16424303.39
16120356.56
15815666.03
16203502.14
16154495.12
16254562.70
16675522.92
16377118.59
16617006.15
16012697.40
15730167.65
15354970.56
15589417.44
16321535.99
16344238.21
16639012.63
16707021.27
16657073.14
16506854.07
16329456.05
16163358.81
15820300.04
15710695.28
15804047.51
15579361.45
15810103.81
15969928.03
15779525.32
15664359.73
15207301.75
15342855.32
15706589.42
15818804.41
15702557.81
15795502.17
15311089.82
15050727.47
15289355.28
15143808.78
15143395.02
15377908.93
15018979.04
15079811.25
15443760.03
15691485.16
15868082.05
15790375.40
15568057.68
15457950.53
16098285.15
16477088.41
16551959.30
16654937.23
17065954.93
17435969.96
17688381.99
17539991.11
16854057.90
16701721.99
16411621.55
16460258.10
16646119.92
16628093.34
16668967.62
16598393.38
16363325.57
16323959.84
16224232.58
16048233.55
15846975.51
15906592.07
15848524.58
16121641.25
16047894.19
15778108.55
15535892.95
15879096.82
16195152.47
15991877.40
15932048.31
15634103.46
15350037.22
15757285.28
16150774.11
15706343.36
15314942.79
15548040.02
15401963.55
15688241.70
16300434.77
16423762.59
16700331.72
16928298.75
16765851.52
16387171.01
16047790.91
15847346.71
15670399.79
15396870.39
15071066.50
14916851.63
14757192.67
14472237.57
14245557.68
14239199.97
14439472.63
14878166.07
15394529.29
15854347.88
16286713.96
16449048.91
16643401.61
16626207.75
16536216.96
16740073.11
16234256.38
15787167.29
15442692.36
15907884.26
16274724.03
15885989.03
15258150.97
15368365.92
15051378.91
15631396.37
15967983.95
16539452.59
16674952.94
16890987.57
16511810.28
16458699.37
16593013.63
16712070.88
16518259.02
16761679.17
16859582.09
16608458.62
16507231.57
16507133.91
16453523.74
16485249.44
16228532.11
15683903.39
15781807.61
15949310.97
15968875.14
16232939.14
15714805.42
15491124.11
15353544.36
15244555.44
15105327.37
15030876.92
14872282.47
14850664.06
15334111.09
15616931.68
15559965.01
15274440.24
15199585.30
14759628.17
15174090.29
15768831.02
16248071.92
16382855.76
16875452.85
17451315.51
17484615.89
17170321.22
16880678.13
16437136.14
16314497.63
16011397.82
15662800.89
15402185.37
15336803.28
15349003.68
14489097.65
14745584.59
15409636.29
15727178.06
16344283.10
16437756.05
16575725.73
16994004.95
16930918.44
17126807.86
17391165.91
17159230.46
16941749.71
16550964.36
16276903.78
16253320.24
16204788.65
16405732.49
16321188.74
16575773.21
16658726.31
16133578.35
16434713.11
16229007.98
16300960.58
16472411.84
16057054.11
16031273.34
15840315.65
15382046.84
15262031.67
15615594.48
15976144.13
15920300.88
15688720.53
15860042.92
15948002.82
15518500.07
15692362.30
15863582.91
15861820.71
15904037.96
16148018.94
16188376.89
16149560.19
16160040.70
16084984.49
15926519.05
15880304.37
15829625.63
15800437.10
15992837.24
16274697.10
15812017.53
15305800.19
15004719.82
15036719.60
15565971.71
15726130.67
16339170.85
16593189.44
16420614.09
16418616.12
16400002.40
16219377.55
16121746.62
16213617.47
16244212.65
16219305.52
16162462.51
16019301.15
15840910.67
15470797.27
15476503.82
15563375.92
15036250.80
14889082.50
14978499.61
14777563.98
14167042.13
14073485.49
14123176.01
14105283.46
14289886.10
14974994.36
15656371.16
15906842.01
15979223.89
15832356.91
16189058.76
16419492.89
16796207.55
17456942.59
16729007.43
16613332.79
16320411.85
16173352.85
16083570.13
16074505.28
16120375.13
15943789.58
15580800.50
15507519.62
15737129.57
15754678.44
15823425.11
16103540.36
16219851.76
16250000.91
15963706.02
16230367.36
16928836.64
16807542.35
16850850.58
16758434.10
16657649.49
16491301.89
16517775.83
16653789.44
16272481.80
16314972.89
16265354.87
16164766.74
16414861.76
16493822.87
16281637.39
16256321.74
16204604.62
16150935.17
16313416.24
16058386.90
15955490.49
15915239.54
15978417.16
16074506.18
16118816.24
16095269.94
16175671.79
16306371.07
16313317.36
15804109.19
15800614.71
16304448.54
16146157.73
15673860.23
15902973.64
16139758.05
15830169.35
15835678.14
15945182.79
15769328.44
15768290.27
15463195.88
15807646.44
15906952.91
15485653.99
16210890.76
16252923.61
16296042.92
16270636.40
16098336.27
16163222.70
16156177.23
16145259.60
15945800.45
16011332.09
16146747.86
16122202.06
16086625.79
16004554.19
15955915.04
15912912.56
15887953.46
15844309.71
15872605.65
15882288.36
15872822.03
15912309.38
15889480.07
16311310.15
15843900.30
15576514.70
15706019.11
15933344.06
15853275.23
15747109.58
15616604.84
15571067.03
15620562.23
16091348.86
15866968.18
15194194.90
15324848.70
15457635.09
15070171.58
14596451.51
15473342.62
15525474.00
15267997.95
15363362.77
15848090.80
16272124.19
16781379.75
16890361.79
16696694.38
16400954.74
16081981.36
16303902.93
16516374.56
16476612.84
16363294.55
16270228.48
16185299.63
16121191.97
16140668.59
16149795.83
16178920.68
15844638.56
15959330.81
16048981.04
15933375.26
15982667.09
16070133.75
16154448.37
16282168.40
16231959.14
16134073.66
16119740.62
16102710.08
16067274.85
16346067.68
16216950.61
15968023.36
15903648.89
15556138.36
15698092.80
16034581.17
16205728.22
15905554.91
15924660.23
15988610.59
15855067.89
15887595.72
15958457.61
15950223.23
16197674.72
16130538.23
15974762.73
15678027.81
15686622.60
16030218.09
15995252.58
15960150.34
15924266.80
15942190.58
16134437.59
15989651.46
15751348.66
15601579.89
15818502.46
16074211.50
15969516.18
15734911.11
15830072.89
15945925.75
16140131.79
15959784.03
15403899.60
15881764.97
16067862.95
15828411.43
15906346.06
16047907.68
16008558.85
15845500.92
16120880.45
16132889.16
16131693.15
16078566.52
15969069.89
15841937.66
15965322.25
15441228.00
15589037.92
15816773.50
15791182.62
15980151.64
15505862.79
15733803.50
16076607.11
15850167.29
15620412.36
15664293.26
15714081.84
15634557.66
15648498.90
15681056.46
15687302.87
15770873.15
16043914.59
15888879.21
15818202.56
15855855.85
15788069.72
15778150.76
15803530.39
15819523.97
15878066.43
15904956.00
15919519.27
16148713.97
16066566.59
15922326.60
15908358.44
15886961.47
15892929.75
15934596.85
15768548.91
15462839.54
15698450.47
16108766.90
15786775.15
15454595.23
16192632.02
15776127.70
15877035.05
15671966.17
15810187.61
15631995.82
15544865.32
15475215.50
15698125.75
16075447.37
16068675.92
15929185.46
16254333.42
16150776.69
16097229.48
16434922.43
16503948.94
16440923.20
16414940.57
16129495.58
16105163.14
16298336.83
15850869.93
16384055.93
16396571.48
16311746.13
16166340.48
16458561.79
16456751.91
16385877.08
16428503.91
16649258.54
16413486.48
16143677.36
16166137.35
15894092.09
16283087.52
16279981.55
16171764.90
16205156.35
15865920.31
16039401.83
16125459.77
15983489.37
16084724.92
16124237.36
16163216.75
16181342.61
16150141.97
16134560.41
16169488.66
16424071.05
16427095.48
16401936.33
16048842.77
15815915.47
16311824.56
16109147.69
16166497.14
16233478.40
16169803.91
16514030.07
16354260.27
16185009.19
16293225.66
16221485.22
16236531.21
16502383.31
16181264.13
16173968.10
16254225.00
15786205.93
16148285.58
16355889.45
16014939.60
16137434.08
16150575.17
16107751.66
16163867.81
15825710.37
16172933.83
16242948.20
16320488.71
16306565.94
16236525.84
16227772.04
16385013.21
16320305.39
16219945.17
16202274.05
15940141.50
15978345.83
16127834.58
16081979.00
16099608.88
16058252.84
16057518.66
16413177.73
16249239.76
16083319.22
16095907.28
16053778.52
16044114.37
16383684.51
16169056.87
16090167.47
16197030.56
16208525.73
16164084.27
16097505.58
16318671.02
16122291.40
16203067.23
16453776.02
15988631.15
15970428.39
15847285.26
15889531.91
16199590.39
15462852.83
16190815.10
16182554.11
15774636.26
16091469.77
16266638.18
16350154.72
16108196.35
16393573.11
16475839.45
16146524.62
16080347.67
15922811.61
15914723.59
16190353.97
15734710.78
16063045.49
16254237.57
16153472.01
16157701.78
16142658.67
16290712.96
16197606.48
16198393.64
15916582.79
16149657.62
16439022.52
16199719.51
16320280.82
16434927.44
16303480.73
16288387.83
16336962.94
16444378.11
16438666.42
16304761.44
16362944.15
16453537.86
16181053.95
16332523.06
16528265.23
16399233.08
16517453.54
16523829.52
16190904.92
16286676.37
16505913.40
16407344.82
16496866.30
16434312.73
16387478.96
16622233.41
16089409.81
15809498.25
16263284.69
16315720.19
16254741.04
16269483.74
16146097.36
16196490.00
15580180.87
15894956.25
16551720.06
15903573.52
15928982.82
16255319.75
16159647.32
16184098.33
15966716.85
15984190.69
16054752.37
15763448.28
16037669.76
16139660.05
16093771.17
16073832.06
16122859.46
16453045.81
16269969.02
16265662.75
16448696.70
16353090.09
16347565.56
16349818.65
16315467.72
16283011.96
16285058.34
15978431.16
16197667.08
16422711.64
16535189.56
16466340.57
16376883.60
16372308.20
16385739.33
16154220.70
16275450.16
16522784.98
16791982.08
16611383.99
16194463.68
16085569.37
16372727.79
16491878.64
16667779.56
16524367.46
16409727.82
16274728.33
16091486.80
16446336.41
16599241.38
16540020.22
16319300.28
16383463.60
16496979.62
16378771.35
16442301.24
16428604.77
16451318.39
16439576.69
16023369.69
16288871.43
16744391.45
16499370.58
16415100.85
16405916.23
16336044.35
15994733.90
16106296.38
16249899.61
16395473.01
16426576.90
16050604.03
16221567.94
16419591.85
16385833.67
16317657.46
15978485.42
16628893.32
16509232.94
16294744.61
15901546.51
16284377.00
16299738.70
16364400.79
16372776.36
16310942.55
16245923.38
16506078.80
16565745.00
16308356.21
16328017.30
15961546.70
16473737.56
16390840.79
16145736.36
16278665.91
16344080.56
16388304.88
16390809.99
16328604.83
16321776.56
16517866.01
16334567.49
16180241.83
15941542.25
15988383.37
16272129.04
16238741.73
16275483.93
16294389.20
16162260.57
16235648.85
16397414.03
16571205.74
16070103.65
16272399.57
16309097.18
16116094.38
16237513.02
16343200.46
16395757.00
16397621.92
16310822.74
16258194.99
16338286.58
16409848.90
16442427.26
16465578.85
16464228.30
16768064.33
16480667.67
16106313.77
16148773.21
16398864.59
16379572.64
16429207.30
16462237.11
16485293.97
16479508.79
16451701.37
16155080.94
15972748.96
16293196.12
16502435.49
16519209.05
16587494.12
16615513.90
16603540.20
16550985.17
16762131.70
16744270.80
16485550.84
16321269.25
16277498.14
16225087.44
16233258.70
16220767.90
16047535.58
16518173.91
16366737.92
16222032.26
16356485.92
16352428.25
16317558.03
16136169.36
16185292.92
16303621.79
16275100.27
16518378.99
16478704.40
16181577.98
16033474.48
15730407.96
16161162.35
16245163.94
16233830.35
16443488.32
16441252.21
16405799.55
16449889.16
16250932.23
16543993.83
16541930.02
16378599.34
16357314.38
16272951.08
16384238.93
16435821.66
16356596.26
16472004.82
16424248.87
16470846.84
16536803.29
16082180.50
15985984.68
16691830.20
16664089.89
16641677.96
16621281.50
16269705.23
16206795.74
15789475.22
16155307.35
16308674.10
16257126.11
16411698.12
16386881.01
16462228.28
16524581.73
16475847.82
16453783.48
16690420.73
16128338.93
16360433.07
16442268.44
16345025.25
16405539.44
16464184.67
16470748.43
16049841.29
16235999.57
16365668.22
16532744.26
16511755.81
16138818.22
16147118.35
16327337.57
16285348.84
16309865.09
16329605.24
16361361.55
16330947.77
16261421.26
16319128.92
16343232.85
16357556.97
15987746.26
16427647.64
16255406.01
16486462.13
16403056.65
16250646.07
15914709.41
15957621.94
16341593.05
16218438.62
16269103.85
16355950.75
15782530.24
16397618.44
16522265.50
16448141.43
16717858.86
16789209.45
16446070.66
16263247.98
16391711.67
16122933.26
16507805.02
16737644.65
16666428.20
16535936.21
16364742.84
16433271.90
16579968.37
16435776.50
16512178.14
16858337.47
16695535.81
16447787.39
16516563.32
16656413.27
16568860.37
16505500.63
16323614.40
16334665.35
16565671.29
16546598.16
16514356.16
16483309.60
16469812.16
16831259.13
16604066.38
16344283.52
16107987.19
16253529.16
16501883.69
16383692.87
16129100.17
16282296.33
16418377.35
16288355.74
16319844.58
16208619.10
16091763.71
16227394.16
16321150.52
16065066.35
16210253.34
16498750.25
16442926.34
16445317.27
16412981.66
16513465.89
16730894.76
16641720.39
16551686.02
16662860.61
16732313.66
16660178.62
16597296.66
16378471.03
16647164.17
16709411.85
16625131.55
16795855.03
16680416.21
16506610.21
15742064.06
16445574.73
16377788.79
16291544.59
16506255.17
16581590.69
16576402.72
16612722.63
16543898.28
16528493.78
16904018.72
16799176.73
16514745.95
16619584.95
16305577.57
16301562.81
16545587.95
16473468.09
15629154.73
15912094.85
16755805.73
16606198.24
16609493.47
16571610.48
16249589.37
16167664.17
16431266.37
16621461.80
16566616.51
16564401.87
16517917.89
16750106.62
16642523.75
16072249.53
16143814.22
16353777.43
16484907.02
16446997.21
16398205.79
16414026.59
16331706.71
16350895.73
16528822.55
16546761.52
16226159.50
16494756.92
16530040.28
16494959.17
16597554.38
16588067.95
16583434.20
16625106.28
16600931.45
16599187.04
16567075.51
16538082.98
16537722.47
16810351.79
16363133.33
16604843.28
16817602.77
16872583.07
16758989.28
16610613.58
17108261.37
16668347.14
16893953.73
17231968.32
16426156.47
16643091.04
16582684.40
16788769.87
16694355.66
16483149.13
16793778.68
16723773.45
16535888.89
16591009.93
16607579.60
16471802.70
16261832.68
16335169.51
16440030.41
16340256.93
16450916.64
16526670.34
16503519.30
16565456.42
16420684.69
16504708.91
16522766.71
16691831.54
16678771.55
16673939.53
16640247.15
16640653.05
16618568.08
16646902.15
16912541.26
17115686.57
16901168.53
16768446.53
16743142.65
16784414.35
16836464.64
16883950.95
16920244.31
16850967.29
16774801.69
16728251.89
16859871.60
17034856.37
16822918.21
16524852.47
16846211.29
16775458.19
16789173.80
16783213.91
16810626.35
16865571.57
16520261.87
16967670.80
16887157.47
16873706.34
16909866.06
16897315.49
16899008.04
16923208.57
16690047.75
16727721.42
16965561.20
16828454.63
16817650.75
16860489.95
16825784.78
16391355.94
16680690.99
16819027.51
16764991.95
16815581.96
16845081.24
16897017.31
16878105.95
16915997.21
16928525.94
16792550.67
16702607.02
16632089.22
16661737.82
16453003.83
16366864.45
16706858.66
16715489.84
16644903.62
16676859.88
16691536.28
16459193.76
16069878.98
16602675.20
17120135.18
17002973.52
16999662.97
16993298.90
16914986.83
16858163.59
16831546.17
16794019.87
16810147.56
16788615.54
16773644.79
16742952.25
16996283.12
16916684.96
16792812.57
16859688.60
16860968.81
16908488.44
16486453.90
16769636.26
16885841.04
16506578.35
16767636.58
16620244.08
16337957.19
16826881.74
16829196.94
16829907.46
17028527.65
16899857.89
16949280.34
17014238.87
16948555.02
16995268.21
16926829.35
16818847.99
16856299.86
16908365.09
16859029.18
16860253.61
16906245.47
17019988.03
16944597.37
16830470.20
16837980.92
17047109.44
16942796.38
16794767.11
16792787.70
16753918.74
16748493.76
17060480.55
16948504.22
16713609.37
16858222.72
16866501.32
16812608.06
16792738.99
16979545.66
16891336.29
16801156.53
16837955.11
16485711.00
16999412.95
16858445.58
16756920.06
16956514.23
17132529.80
16979211.26
16702681.25
16771178.68
17078777.90
17021162.79
16708189.44
16747443.40
16690987.85
16756669.93
17028797.80
16872862.29
16317997.91
16605319.42
16901029.65
16738033.41
16805443.48
16771535.65
16776749.68
16696358.53
16617407.07
16534906.67
16668778.67
16877683.62
16995876.35
16914118.10
16790549.69
16831157.64
16831784.46
16822371.17
16852500.13
16834342.26
16969622.31
16983038.66
16851644.43
16855828.75
17045006.05
16971981.04
16885588.73
16911395.82
16882567.96
16878183.82
16882802.23
16852223.79
16823175.86
16846925.95
16893995.64
16872547.76
16839329.94
17023323.38
16903322.07
16747141.94
16690582.56
16659844.14
16653042.22
16633764.43
16705471.74
16810196.30
16691029.09
16557548.91
16982266.87
16928843.13
16765218.86
16817922.53
16816597.67
16948476.55
16827833.05
16832621.43
16503994.45
16851478.51
16943462.70
16832350.40
16913655.74
16912491.24
16923830.68
16898425.07
16862878.37
16839672.99
16764566.88
16824263.82
16862232.59
16741172.50
16721413.02
17069426.01
17228529.00
17267787.40
16937288.94
17002459.00
16923177.23
16732170.12
16827593.14
16855565.43
16882260.41
16785142.93
16696219.55
16745595.10
16806548.83
16913012.22
16317257.85
16737736.80
17036618.77
16904353.23
16689936.25
16801403.77
16939306.02
16608487.60
16749256.73
16850831.93
16825287.83
16868122.39
16879425.66
16875271.43
16567698.30
16692585.30
16977279.34
16934702.82
16963123.37
16723488.11
16904287.33
16987040.39
16918043.60
16619404.61
16552618.87
16831616.01
16904091.94
16696171.19
16729839.35
17075867.21
16902371.29
16729625.97
16821196.54
16870501.76
16825272.76
16779704.88
16769041.80
16842079.14
16890780.58
16909529.48
16999039.13
16922548.91
16780362.06
16499131.19
16580465.16
16786139.50
16774129.16
16744201.54
16673949.93
16661889.21
16685445.72
16702780.42
16733835.13
16735418.07
16722802.27
16552291.46
16939229.29
16875250.08
16633805.27
16753002.82
16811767.37
17011511.33
16916615.93
16324648.29
16599068.92
16895170.08
16834739.53
16869707.76
16880328.71
16834359.73
16710655.65
16801285.14
16879392.13
16794173.95
16749553.42
16879975.96
16809141.62
16792130.98
16859571.31
16889714.07
16946001.42
16938163.44
16949779.43
16955967.63
16909263.32
16825964.99
16779675.39
16833377.42
16802923.30
16766601.91
16407682.14
16832984.71
16928858.82
16813676.81
16907011.38
16856021.87
16840631.84
16829496.31
16839971.09
16861455.33
16880962.01
16929368.87
16527052.21
16731141.49
17206032.92
17111089.48
16968488.72
16993500.02
16952647.06
16950794.55
16910053.54
16864013.24
16863986.04
16839269.49
16785958.94
16763051.08
16789734.12
16821625.49
16802086.53
16825812.39
16836320.78
16761002.23
16682886.01
16654296.34
16707173.72
16659396.59
16660194.35
16977551.25
16821613.21
16748274.71
16809203.41
16891876.54
16850959.67
16893197.90
16904196.28
16917967.94
16921720.15
17098975.87
16946645.97
16901998.62
16957014.43
16937908.92
16899397.45
16859726.32
16836934.46
16787021.02
16769470.46
16768908.96
17126276.42
16987707.56
16768583.14
16823440.40
16791423.24
16797441.29
16866723.47
16848767.81
16817570.28
16872729.93
16869276.94
16829510.62
16630332.55
16909751.87
16879962.99
16847066.33
16863699.91
16855762.39
16833460.12
16533187.03
16932638.96
16957643.64
16861680.62
16855870.63
16834832.12
16876263.14
16880935.50
16838710.33
16846500.06
16822535.53
16806098.18
16887378.71
17028489.22
16966683.11
16914121.30
16911775.79
16895862.59
16868062.99
16855281.47
16876048.39
16864347.87
16836036.85
16806996.09
16788170.49
16884154.95
16939894.21
16836120.49
16668485.16
16475496.39
16752718.77
16899187.63
16784009.42
16805042.86
16845025.48
16817642.71
16803467.83
16774079.97
16903982.78
16284297.48
16366954.19
17102412.00
16961246.54
16612877.85
16839165.41
16927753.11
16846574.81
16804945.17
16810659.92
16872245.90
16904392.34
16892953.29
16830841.96
16851952.63
16889059.25
16893127.60
16818867.67
16881737.52
16853477.10
16812664.21
16843454.32
16844967.55
16829644.61
16635039.23
16673533.14
16965340.51
16795084.96
16719901.46
16752178.38
16299825.09
16531314.10
16825777.97
16661460.00
16768598.08
16783278.96
16698366.30
16730766.80
16787582.47
16412937.56
16738111.35
16835979.92
16760142.00
16738932.70
16713143.91
16766681.18
16579541.77
16780801.48
16931810.95
16835088.97
16911301.73
16803421.36
16821891.81
17035382.38
16985518.71
16877148.44
16889789.86
16876034.81
16885018.30
16966011.08
16963020.39
16905730.34
16685678.10
16614827.58
16896264.30
16814899.42
16738442.56
16760209.18
16758924.33
16480158.43
16839498.44
16860455.19
16819405.97
16833939.18
16789975.82
16777645.79
16812813.72
16838656.21
16831581.76
16838358.47
16846151.29
16860315.05
16867872.18
17087402.54
16929240.86
16824206.08
17094316.16
16703716.85
16706396.37
17157542.03
17191255.73
16701646.62
16681261.80
16912959.57
16856907.25
16840711.57
16848538.85
16770708.17
16781351.47
16841029.25
16847717.05
16844155.96
16862085.19
16867398.95
16843540.57
16844676.17
16888776.32
16984499.51
16935478.99
16721179.37
16777817.81
16925512.09
16857798.45
16798751.22
16756852.52
16836863.17
16844510.12
16838889.75
16892510.61
16628495.66
16656733.96
16935128.52
16868244.35
16868653.19
16889606.49
16838776.86
16798831.69
16741172.57
16755302.36
16601815.25
16614855.35
16710680.02
16792101.73
17038950.17
16899116.81
16775657.63
16839530.32
16853354.67
16896463.49
16826012.05
16836897.47
16904840.39
16882155.60
16811083.66
16834141.52
16877978.20
16897319.33
16889872.93
16795566.33
16742242.91
16763327.30
16885297.67
16502536.34
16738870.89
16786114.04
16847188.10
16860850.43
17082024.20
16930636.05
16897865.41
16625627.39
16723878.39
16921790.90
16500671.95
16795384.69
16876744.38
16776667.43
16803133.17
16836445.06
16880183.23
16869076.12
17162851.17
17044849.03
16761685.68
16882892.88
16465571.03
16648681.84
16954678.99
16832404.41
16806374.77
16844356.03
16872899.98
16835809.78
16772668.85
16803784.64
16874258.22
16897743.75
16879566.99
16854884.65
16834793.42
16809372.91
16799701.05
16757630.48
16730341.61
16728804.00
16735754.20
16401148.68
16177222.93
16691757.60
16660570.02
16630417.80
16831834.00
16816741.98
16822931.79
16789536.97
16752443.38
16736829.11
16773696.36
16568055.14
16746725.22
16996074.51
16827797.13
16798022.43
16830575.92
16840474.00
16853012.31
16850170.63
16853505.96
16937935.54
16886200.26
16856701.32
16882810.23
17091864.64
16955963.38
17082436.85
16994998.84
17180944.55
17048308.83
17093809.52
16720334.19
16598073.70
16458609.77
16551478.95
16754732.21
17010879.14
16825516.57
16712367.75
16712486.84
16787077.45
16949985.01
16061695.72
16320743.05
16825727.39
16715198.06
16789880.99
16821937.01
17086707.75
16995519.74
16858834.53
16871413.59
16819513.13
17061168.77
16898745.63
16433898.48
16976307.50
16861353.00
16595670.66
16926545.46
16891294.04
16820493.54
16831125.06
16573051.97
16645311.44
16926410.65
16865691.15
16849608.26
16891965.01
16674636.07
16694311.20
17154199.93
16932097.54
16427214.42
16859919.32
16872250.57
16801001.76
16575860.88
16942107.20
16906989.63
16675675.71
16845568.96
16797145.73
16798683.68
16822380.03
16808978.96
16800027.36
16456029.81
16875414.66
16873953.81
16847669.53
16825858.37
16773358.53
16776941.44
16790288.68
16785059.31
16549137.40
16597072.45
16872382.54
16993704.74
16887077.42
16573884.69
16250303.98
16879381.54
16922715.15
16814626.45
16845423.94
16847857.23
16861169.25
16837266.35
16780183.21
16733977.04
16750736.16
16790386.08
16805900.40
16837231.34
16820691.70
16864270.56
16743932.63
16673540.25
16750749.17
16720566.85
16695138.38
16670897.27
16687261.39
16759420.69
16779245.10
16676374.07
16925837.49
17103646.13
16877806.60
16466324.99
16742601.89
16851805.05
16781776.81
16782407.61
16796007.44
16483791.52
16692083.70
16901121.50
16490105.04
16724031.06
16986059.15
16767682.62
16879339.91
16897393.45
16865489.59
16886234.65
16924767.50
16961721.81
16912150.54
16858398.99
16815602.44
16794343.39
16818806.94
16811555.52
16801737.71
16766252.16
16747814.74
16515343.96
16306327.03
16587461.22
16840312.36
16758236.31
17082745.16
16898275.85
16744959.99
17187864.72
16983307.39
16767819.53
16866420.87
16859580.18
16874848.98
16866064.72
16818806.45
16550468.43
16705771.06
16864147.58
16579777.19
16745871.87
16899482.71
16755817.00
16798272.25
16822539.42
16825561.47
16850610.93
16819744.89
16647212.72
16674672.16
16847143.29
16774609.39
16756800.25
16680959.55
16691384.37
16765102.37
16715595.34
16981756.47
16979119.66
16439099.20
16403342.32
17011381.16
16986353.33
16645074.30
16676888.15
16688871.44
16765022.66
16958417.03
16767366.95
16665278.62
16755660.24
16741931.58
16861626.29
16896863.72
16880221.66
16909496.85
16862408.34
16828183.14
16822637.32
16817987.03
16850382.11
16897832.91
16918738.64
16584548.67
16803414.71
16969123.20
16832367.53
16852931.62
16849095.69
16925663.79
16915420.20
16867972.87
16881192.25
16845502.74
16814164.75
16768812.08
16789336.39
16954559.96
16877867.08
16716010.62
16743432.80
16872315.11
16796764.34
16706456.29
16761361.49
16980109.71
16864902.45
16917394.68
16792520.13
16645269.44
16753275.10
16795759.58
16778321.47
16771765.40
16794135.15
16788542.97
16836172.35
16845506.47
16882963.21
16897206.76
15969924.10
16768953.83
16608785.43
16719447.15
16629068.96
16725934.40
16742956.62
16649407.41
16862099.92
16805250.85
16719853.37
16773531.95
16834872.92
16915170.52
16881156.88
16849626.91
16826318.81
16767924.40
16584962.71
16683497.38
16708020.34
16710340.62
16733438.55
16750623.17
16842311.89
16888033.44
16665985.06
16820103.36
16550852.75
16647766.64
17187762.45
16905797.04
16736340.36
16793537.45
16882848.94
16828912.92
16735251.09
16705019.37
16682515.22
16763701.23
16455320.30
16738774.24
16521168.55
16623021.00
16903537.93
16833377.58
16864313.39
16891379.73
16863826.24
16830305.28
16780028.24
16499324.26
16520822.30
16841918.37
16782995.90
16795087.19
16805447.99
16777508.17
16825175.57
16710131.19
16702438.83
16481107.68
16618524.83
16814444.60
16424146.76
17089647.16
16953106.36
16473904.30
16721512.75
16848681.72
16761015.32
16779480.05
16771201.31
16362899.55
16275611.84
16668420.88
16860553.52
16786313.65
16834228.50
16835195.36
16788436.42
16781230.37
16812552.98
16650091.76
16618223.60
16830220.59
16734623.09
16819030.17
16835410.64
16614125.02
16908601.77
17024702.57
16850895.18
16905231.60
16872511.39
16808022.32
16827437.21
16921211.30
16832434.51
16746194.29
16730899.82
16706566.95
16703608.53
16719258.67
16728838.11
16737877.10
16773394.36
16799373.87
16808463.68
16812071.24
16789222.25
16787193.90
16783152.87
16774729.43
16726418.97
16686387.81
16722530.16
16730795.03
16724643.43
16737577.60
16712476.24
16398079.68
16666463.87
16921593.45
16912749.37
16894997.41
16913875.97
16939855.89
16911542.74
16897318.68
16869276.30
16835484.81
16805926.75
16828659.95
16874592.09
16853898.75
16523416.88
16673104.35
16830164.71
16882061.94
16812500.44
16750440.99
16698792.12
16745253.44
16793970.53
16817024.56
16822307.09
16778099.61
16740573.23
16764145.95
16765583.68
16766876.49
16798334.23
16792735.67
16744306.38
16715875.16
16720875.12
16747261.51
16768370.95
16762805.21
16870339.78
16763498.38
16723610.20
16812307.80
16796687.54
16815162.82
16809716.23
16813142.86
16835406.09
16856925.91
16851545.27
16859770.60
16855029.97
16841954.44
16592581.69
16763439.90
17133904.12
16912038.53
16159189.54
16228967.97
16862287.93
16792582.19
16607441.26
16633935.04
16684574.40
16730268.03
16756744.59
16718834.54
17033302.39
16844418.38
17005041.01
17008229.79
16751053.92
16854263.92
16833584.20
16796298.48
16786250.47
16776972.50
16445905.29
16756224.03
16941781.01
16944397.15
16831869.65
16790898.28
16818907.00
16844725.93
16823510.09
16828444.99
17314145.55
16849724.74
16786011.79
16679453.62
16424053.52
16714548.27
16868673.56
16755924.57
16775891.73
16786152.94
16780012.53
16802580.97
16730572.77
16747052.02
16744229.35
16693793.45
16678401.36
16722239.69
16347032.94
16679917.08
16522767.46
16173627.34
16616660.27
16855085.42
16839886.38
16446970.36
16602551.65
16849211.01
16783999.54
17089844.51
16958928.48
16373080.34
16581047.24
16885606.63
16800961.02
16992855.49
16927174.94
16499332.34
16733216.21
16885031.06
16917583.45
16922551.91
16876281.14
16871156.08
16855409.51
16798238.85
16787352.78
16824236.07
16845511.16
16495296.17
16643301.79
16817634.52
16799008.73
16789654.33
16734716.15
16471847.75
16520112.29
16756912.88
16922585.69
16607501.66
16567746.78
16829295.29
16795060.62
16798202.47
16778303.34
16769627.41
16881028.43
16829675.75
16846016.72
16805310.26
17029870.40
16916180.49
16947883.99
16888764.51
16741631.84
16793284.11
16817137.77
16784252.39
16811131.99
16817770.89
16818769.36
16811651.89
16809120.23
16861277.49
16831906.85
16847497.60
16778669.87
16855241.12
16836172.37
16789590.17
16765437.86
16764931.48
16703776.08
17012066.36
16943964.49
16659310.54
17069927.70
16881343.40
17101101.31
16821046.89
16515561.78
16759330.70
16745345.81
16726266.79
16721037.65
16626509.06
16691747.29
16994537.41
16605728.84
16562354.22
16340368.36
16681636.21
16808278.70
16755131.12
16772887.65
16813792.41
16721484.33
16765013.48
16896922.35
16729462.25
16768938.28
16855762.75
16834846.51
16852955.17
16901129.86
16849947.35
16623458.12
16789546.11
16824636.27
16784593.23
16808044.03
16798344.24
16375744.30
16339499.72
17018922.36
17102737.90
16692684.57
16767756.39
16742249.77
16716687.13
16692572.19
16727178.30
16414923.82
16568845.30
16988756.28
16937217.90
16744315.17
16814261.50
16810787.81
16761507.78
16742419.94
16763467.70
16766414.88
16725179.53
16868349.96
16772438.45
16781408.69
16918627.79
16832084.62
16750847.32
16788018.33
16771794.89
16765711.13
16772420.47
16778781.40
16777501.45
16771560.92
16710254.83
16736392.05
16697822.40
16703189.40
16731438.10
17047033.67
16949415.35
16675796.73
16752119.16
16721382.42
16722140.19
16918919.67
16874303.91
16713392.61
16744594.36
16763439.39
16742144.74
16702918.20
16716303.09
16735893.72
16320451.99
16598142.27
16465568.83
16585055.53
16870395.38
16786530.74
16733892.24
16725772.13
16764068.99
16748533.68
16943085.99
16903621.65
16827881.00
16929360.55
16835694.40
16801346.23
16812020.05
16810182.99
16805241.53
16806605.71
16564355.41
16920304.51
16873543.89
16714805.51
16718250.27
16663510.82
16678088.71
16701970.55
16903738.48
16599863.69
16528363.55
16729532.60
16694151.45
16699396.06
16645759.90
16685094.48
16456644.23
16584616.84
16824655.49
16753162.72
16708143.48
17063571.28
16915992.41
16758251.94
16758936.31
16670120.25
16727140.77
16692457.65
16698187.58
16654390.45
16716115.13
16354225.51
16760912.76
16824008.04
16780431.70
17018063.92
16662175.06
16603833.45
16881610.23
16840267.90
16816766.45
17025301.81
16933099.41
16740791.05
16806458.59
16760317.08
16705541.42
16715341.76
16762799.21
16747217.99
16748324.87
16724787.12
16748103.47
16769706.77
16425920.21
16680039.57
16971050.93
16492906.77
16869594.57
17036483.98
16736848.83
16775507.81
16797305.93
16783724.02
16775341.70
16473245.58
16495445.39
16788959.34
16417599.65
16761726.25
16772094.47
16759464.87
16630808.47
16764867.95
16867490.04
16830216.70
16518055.48
16636953.07
17033120.10
16925659.92
17007442.58
16933633.48
16784534.93
16819727.47
16766555.18
16749776.62
16726702.45
16709710.54
16716354.61
16307958.54
16745369.85
16748075.83
16733308.48
16757662.40
16706693.89
16896868.80
16873777.26
16734651.87
16761485.23
16755528.34
16750468.60
16766159.71
17002248.55
16812826.73
16700995.93
16766722.06
16748529.72
16707612.22
16702929.44
16744475.69
16785411.46
16756310.04
16748401.04
16776227.91
16770336.60
16481076.71
16643384.98
16921862.42
16684733.66
16624717.71
16678751.29
16675860.48
16670003.58
16639636.99
16609009.86
16577894.58
16573050.22
16564796.12
16522723.42
16175775.94
16716218.80
16671624.74
16669811.02
16694770.09
16634280.60
16917037.20
16797152.28
16640480.87
16705592.92
16699688.36
16709851.06
16765213.58
16351826.51
16319279.35
16752635.39
16808490.34
16744266.07
16759183.99
16645287.91
16657265.08
16646070.08
16314919.71
16506048.66
16579546.10
16685238.38
16803451.75
17058362.31
16634363.85
16551658.98
16569143.04
16521592.59
16503173.15
16499527.23
16363712.85
15999806.40
15916474.55
16386989.85
16433070.72
16326547.19
16104502.80
16490926.97
16697378.13
16633854.51
16727300.25
16827622.56
16827810.98
16513520.94
16608222.74
16905402.05
16873329.84
16840093.38
16860054.86
16845713.29
16582282.83
16797943.44
16839350.09
16773623.34
16723968.97
16637373.09
16735106.54
16529895.96
17019144.01
17270969.05
16981442.15
17097630.47
17094783.41
17019402.27
16561950.23
17005633.10
16963559.61
16871721.66
16834804.02
16807730.63
16545357.92
16612306.51
16452961.60
16791298.88
16840530.62
16665362.84
16819568.70
16739191.99
16715119.92
16686251.45
16705220.14
16738602.71
16358152.54
16543525.34
16744671.26
16904869.61
16596972.58
16492335.69
16621236.37
16492298.18
16661669.92
16555540.63
16818465.92
16203191.18
16267861.11
16695750.25
16637884.62
16410156.67
16676170.29
16787237.94
16701011.24
16718125.07
16722724.43
16700422.18
16339177.21
16655484.40
16874496.69
16868873.78
16963305.48
17049458.32
17250142.28
17177077.08
17132011.54
17194095.90
17127881.21
17004812.06
16915382.00
16859376.95
16861043.10
16871698.24
16879267.71
16901258.51
16974843.64
16982003.74
16950114.91
16876475.73
16500483.07
16714893.42
16866139.37
16764226.07
16804983.73
16179280.60
16822279.71
17106281.43
16725651.83
16486441.76
16749617.87
16846516.36
16483154.14
16464247.08
16839644.59
16862867.86
16823049.69
16849398.77
16838021.59
16795633.44
16771933.84
16785520.27
16785472.99
16786048.37
16770491.48
16807016.61
16447184.88
16796194.88
16766632.44
16743046.38
16432708.78
16687628.53
16747113.81
16558331.66
16706451.58
16879477.21
16750782.20
16700180.65
17045300.70
16873993.78
16715437.93
16882532.89
16825574.28
16691147.90
16669993.74
16661076.98
16273782.53
16579392.32
16715554.91
16484055.68
16512803.80
16482977.36
16018467.90
16418263.14
16523399.32
16464120.46
16255446.57
16370550.36
16528065.39
16463638.24
16453269.52
16192531.81
16680934.60
16643952.21
16816644.68
16542007.67
16404018.27
16667162.05
16744908.59
16724125.42
16600034.43
16582525.79
16545431.64
16426143.75
16458156.19
16665262.01
16343241.48
16812701.46
16915551.05
16747287.07
16736639.39
16746110.66
16978157.49
16709350.67
16836813.21
17148192.25
17104045.15
17332298.27
17410214.74
17138467.25
17293599.19
17138617.41
16897045.94
16937741.20
17001653.61
17047568.02
17129530.37
17415782.49
17166658.51
16953945.38
16971069.91
16916998.24
16812083.07
16458101.18
16489543.37
16512968.46
16449422.58
16782754.84
16707007.95
16529775.19
16586772.85
16561765.45
16737221.08
16608087.12
16362057.55
16713001.24
16803475.67
16465271.87
16390978.31
16430789.03
16374777.02
16402139.52
16354084.95
16592175.84
16067645.23
15957579.65
16389278.96
16311024.67
16369150.83
16366893.08
15970780.67
16180768.38
16156890.17
16085776.77
16536400.01
16618329.08
16575974.20
16611982.47
16842785.70
17020414.39
17136902.02
17184501.94
16929430.73
17089491.16
16939961.48
16777639.29
16826518.89
16897474.47
17004509.05
17027170.33
17047008.75
17024505.50
16955849.94
16922916.66
16971113.71
16962493.19
16932266.28
16929041.31
16936470.84
17347480.31
17015292.40
16959476.48
17196176.80
16880383.06
16828386.32
16737035.21
16760115.46
16915566.82
16836624.67
16790013.15
16830888.28
16891871.19
16910409.32
16788420.84
17029109.35
17005855.07
16856769.25
16910173.70
16888100.90
16555714.65
16414312.62
16653430.77
16813211.15
16755653.90
16727689.04
16626932.31
16471152.44
16147154.16
16339287.32
16048049.34
15940890.71
16164953.84
16223005.03
15979026.19
16102468.86
16588494.70
16343277.47
16327056.24
16449779.60
16428831.59
16377526.74
16213522.35
15933744.58
16323443.39
16293073.95
17140813.28
17255771.86
17210395.62
17295179.44
17296718.39
17395934.89
17398827.16
17270420.39
17143265.46
16924085.30
16915982.75
17058594.89
17066148.02
17076030.08
16907093.95
16866252.49
16926336.45
16907035.79
16804606.16
16832020.53
16552582.14
16404732.69
16844997.62
16995432.46
16718994.15
16556863.23
16219427.51
16518615.14
16417548.35
16476542.35
16520962.93
16604315.63
16403224.71
16389653.93
16898420.45
16415012.21
16345819.76
16174341.72
16102969.79
16663131.42
16352057.87
16181470.59
16522430.22
16750838.91
16768876.18
16769086.41
16202637.09
16687651.75
16799083.25
16659431.90
16852947.96
16268618.90
16739397.87
17050951.00
16693834.19
16352040.06
16478284.92
16773452.29
16722025.87
16669412.92
16697523.46
16911869.96
16735685.65
16897076.40
17147318.42
17107627.04
17198666.21
17032109.07
16686536.65
16766299.47
17128244.11
17059370.44
16915535.43
16908579.33
16855000.02
16806127.56
16737968.02
16686303.62
16670461.23
16632452.58
16630203.78
16640826.05
16752288.82
16860127.01
16898036.53
16488206.82
16572290.85
16686287.78
16459146.67
16430026.53
16153896.61
16712320.20
16833323.82
16822943.77
17011723.81
17174648.59
17182809.77
17100105.15
17032427.17
16946998.34
16884567.92
16747212.20
16655732.11
16618178.67
16801874.15
16476567.65
16385226.48
16118306.02
16388727.90
16607466.73
16570243.76
16337092.99
16334955.25
16479100.95
16898505.29
17034504.86
16679518.14
16771495.06
17171900.58
17089866.10
16987148.62
16930032.52
16940200.59
16989990.83
17098927.33
17071009.39
16957991.54
16959521.92
16894643.38
16792683.53
16713222.70
16683582.33
16718337.11
16786207.11
16800216.01
16785081.04
16720576.80
16632591.80
16595124.29
16523521.39
16542529.48
16576952.15
16546624.64
16490187.85
16785957.59
16553281.59
16465345.83
16577065.61
16556255.74
16532035.97
16652964.00
16823160.10
16544286.15
16656719.07
16729801.49
16631097.18
16798830.24
16892314.39
16851769.34
16942213.46
16783711.98
16630797.86
16188083.71
16306079.38
16576302.67
16482988.53
16563172.47
16592950.64
16235599.94
16675494.30
16752343.92
16920184.45
16616732.13
16750498.96
16803057.17
16711864.48
16736511.18
16116107.50
17346181.09
17177957.56
16820514.94
16990289.15
17133767.27
16554745.85
16623572.07
16506213.40
16356483.32
16681655.75
16504787.62
16849358.83
16638715.42
16538804.45
16257112.54
16372814.49
16749355.96
16733486.50
16702031.26
16820425.84
16319464.70
16589482.98
16603952.53
16513085.92
16588042.69
16853269.39
16598632.49
16511018.83
16697352.07
16619536.49
16643669.83
17066603.82
16907130.74
16661715.95
16618508.82
16448822.55
16479398.27
16479014.69
16666230.66
16468621.78
16166916.15
16533048.91
17023879.62
16607961.60
16559694.92
17136075.08
17054677.39
16729881.43
16556248.18
16566204.14
16691850.33
16527764.72
16435095.46
16433809.96
16385619.88
16467298.65
16575988.72
16520354.77
16582372.92
16445511.82
16699598.49
16835247.05
16685995.97
16431848.18
16395761.64
16373575.85
16252267.45
16235895.38
16462045.30
16052004.05
15781775.47
16070025.36
16351397.60
16827212.90
16697320.88
16425240.24
16644571.63
16952924.69
16814511.38
16619144.05
16689924.29
16787050.36
16769166.36
16769321.39
16339469.42
16325962.99
16365714.45
16275915.44
16249856.36
16224330.97
16319333.98
16522809.53
16204014.95
16410955.93
16591285.62
16351997.32
16327231.53
16350018.56
16441423.22
16747166.20
16520575.47
16517824.34
16706635.92
16748271.70
16850873.56
16722618.98
16634076.09
16528751.56
16507732.40
16942142.03
16734503.78
16634511.76
16336053.76
16590633.58
16685096.21
16683194.46
16518468.63
16309477.10
16085541.26
16108840.08
16266009.39
16246956.56
16408348.46
16538086.75
16737710.69
16449404.70
16448110.74
16570331.13
16681693.60
16470792.73
16505984.33
16607973.32
16230583.82
16667992.73
16509395.37
16191960.91
16352192.19
16417125.76
16279735.32
16463715.42
16195554.39
15623400.97
15770177.04
15866255.37
15820557.77
15801768.43
16151579.58
16250532.22
16129664.05
16171585.43
15960487.69
15755053.28
16365215.43
16779081.00
17040144.43
16790759.88
16942858.41
17192016.28
17253082.63
17060089.51
16205889.29
16629840.95
16635511.94
16582244.64
16686954.66
16670976.32
16690427.72
16834755.18
16711943.72
16226997.53
16582473.88
16699664.57
16938559.77
17038560.78
17293079.07
17441825.04
16863107.49
16648222.11
16769908.93
16334307.00
16372654.70
16715848.15
16494719.44
16392216.52
16173996.74
15643451.66
15912491.83
15703361.33
15762476.11
15994232.01
16155593.96
16459693.00
16472045.43
16537120.65
16636527.66
16597379.76
16519887.55
16566945.22
16502428.23
16548149.60
16426592.48
16344313.22
16414709.04
16771537.27
16886548.33
16559579.43
16387777.16
16251731.89
16013905.26
15896618.06
16095778.06
15952711.66
16016593.94
16211670.05
16224334.22
16541903.23
16995555.76
16481021.34
16245237.51
16091739.40
15582288.52
15874000.31
15873085.52
15736514.34
16151112.94
16451461.83
16715498.13
16732483.09
16732678.69
16736469.00
16640146.18
16520454.07
15976507.98
15701403.26
15780440.11
15821481.31
16118991.29
16691358.36
16625769.51
16628440.22
16718043.07
16751951.54
16840597.03
16894760.18
17081365.29
17366770.55
17344236.45
17692373.25
17462192.07
17322363.48
17007063.90
16822866.13
16706990.68
16652481.80
17006141.94
16721991.92
16251501.29
16139497.34
16223073.31
15904723.30
15742503.05
15872499.95
15964393.97
15994253.70
15979756.74
15932534.15
16012754.73
15804158.40
15820201.46
15618357.42
15952958.89
16685805.11
16449060.48
16767023.19
16460516.70
16538020.27
16652689.41
16544822.43
16601642.13
16973193.78
16679283.09
15876921.41
15865252.02
15968729.08
16050632.61
15957511.15
15668249.59
15392554.31
15486543.05
15855950.65
16236409.91
16807026.64
16818233.82
16741760.55
16831008.19
16179544.89
15431420.24
15424650.69
15977762.19
16292355.13
16706723.11
17174142.30
17165955.13
17229023.51
17232003.52
17261142.44
17618315.16
17303685.42
17057669.15
16841013.09
16632293.03
16625196.18
16508606.95
16434247.75
16385405.80
16323537.79
16287076.89
15927226.87
16209272.04
16349038.43
16253302.17
16202876.85
16376835.51
16332049.48
16348095.22
16317600.62
16367454.20
16435098.41
16426337.20
16629145.09
16451035.38
16201521.71
16272765.76
15970848.29
15938167.66
16178415.33
15687425.34
15297928.73
15241749.53
15094987.80
15150247.29
15080047.35
15518081.40
16213731.85
16049230.75
15638850.73
16098487.97
16680716.05
16992169.52
17201457.69
17367237.05
17357313.97
17007290.45
16959505.27
16856103.69
16534150.72
16230957.67
16094605.99
16203100.26
16231947.89
16420120.44
16707253.12
17088345.93
16961075.90
16880727.29
17090500.21
17131565.27
16925106.64
16869509.14
16064834.41
16175018.30
16059871.31
16000666.85
16112522.93
16226230.14
16401324.41
16515957.61
16221180.33
16111750.84
15808405.11
15924756.51
16152396.65
15973830.92
15998408.64
16031240.72
16007738.69
15926881.61
15726843.31
15693850.54
15819165.30
16479378.60
16377083.92
16231014.99
15990847.12
16207069.26
16507702.27
16565654.92
16987613.25
16899077.25
16945125.22
17170129.89
16817234.61
16677567.33
16466019.27
16081391.40
15553577.38
15512781.74
15772012.03
15710277.71
15931013.98
16259640.74
16553320.44
16311986.17
16247527.39
16953412.82
17561327.06
17501703.54
17303695.14
17236321.16
16713350.63
16637460.48
16990979.23
16611104.47
15977708.76
16093391.10
16307677.15
16135098.61
16103891.14
16195319.20
16332438.73
16048675.04
16345102.94
16341889.51
15908193.71
16158477.62
16325378.68
16407396.68
16642864.10
16679080.76
16625896.80
16824179.62
16443080.96
16319513.92
16526659.86
16091984.24
15858639.02
15762916.16
15532655.86
15256875.05
14664608.03
14525508.61
14934303.52
15077971.85
15563827.12
15576346.53
15395747.87
15137813.18
14968073.25
15163446.78
15537980.64
16008494.07
16389861.76
16582581.92
16666028.26
16801989.69
17002755.01
17092137.34
17326290.09
17485054.85
17372343.81
17342279.37
17302677.27
17175311.12
17046034.21
16939823.09
16871660.18
16798077.01
16731783.93
16707524.51
16652515.68
16638536.35
16371852.20
16081782.76
16098002.61
16099227.09
16124357.39
16022713.86
15829809.53
15690976.58
15617993.60
15678936.16
15693623.78
15820752.65
15961823.41
15930320.12
16255884.61
16558550.46
16805075.39
16667508.99
16440847.80
16571798.04
16424880.45
16183024.57
16167478.24
16582843.64
17013283.85
16720156.99
16288627.46
16292263.34
16459999.17
16545180.87
16525782.52
16141495.89
16421160.84
16328597.74
16300474.36
16250547.50
16221227.00
16249737.35
16208353.06
15896972.47
15713930.13
15783648.10
15901226.38
16107899.06
15883631.93
15820718.73
15799011.12
15692283.95
15966739.36
16216858.41
16131402.12
16122998.75
16290476.29
16361699.86
16056969.33
16361651.88
16261670.77
15816008.73
15690438.92
15440668.38
15112751.26
14842715.81
14789176.94
14822756.52
15325606.89
16054516.15
16517029.91
16565986.36
16563983.58
16581255.04
16382486.93
16415851.23
16560280.03
16335499.71
16310413.42
16426453.32
16441965.90
16048701.77
15481217.59
15540483.68
15694506.83
15692854.22
16114741.40
16556517.35
16635840.53
16575998.79
16499907.68
16595040.92
16724523.77
16592753.15
16050714.80
15982943.61
15670319.06
15464647.61
15447509.52
15471762.57
15430042.58
15370137.80
15638350.92
15210694.02
15464823.61
15635799.77
15577969.34
15747311.13
16425912.32
16594607.14
16914385.45
17232633.42
17150841.14
16922018.20
16764837.03
16881156.95
16803091.93
16687667.20
16853812.00
16997432.27
16889999.19
16606299.96
16361826.59
15936629.32
15828923.03
15870542.32
15898780.88
16145028.61
16068069.41
16062603.65
16317012.71
16360699.84
16241994.95
15946926.97
15731046.33
15762624.66
15839106.64
16588745.02
16671816.08
16652703.48
16630816.00
16524334.25
16363608.72
16315550.20
16108984.78
15909851.72
15473995.91
15403966.53
15953044.58
16076138.53
16074445.40
16155933.96
16323200.14
16353788.62
16573317.15
16673428.30
16463728.24
16632360.28
16653840.80
16168363.53
16356194.22
16644667.26
16461821.98
16303804.67
16238505.29
16292945.26
15995899.05
15676404.78
16194387.41
15930202.41
15998924.97
16707735.80
16519675.85
16195914.48
16012745.49
15724454.41
15791009.19
15591537.48
15369420.27
15283461.18
15708938.27
16032801.33
16059924.52
16006115.98
15875468.92
15828027.15
15677479.00
15440833.47
15115452.52
15446688.25
15693172.75
15657293.09
15723589.97
16224442.21
16702639.24
16782117.28
17135873.94
17021474.92
16804619.75
16762246.07
16720934.30
16363701.73
15804054.97
15860621.59
15978599.99
15899578.51
15732946.46
15764798.29
16163855.94
16244219.05
16168827.17
16149629.10
15681005.38
15715048.00
16201838.13
16164882.33
15860142.74
16045410.07
16117000.96
16173392.02
16302083.80
16332738.57
16619813.89
16282467.87
16379372.33
16481161.39
16278416.23
16039098.42
15624707.03
15810061.60
16023020.92
15787942.99
15912630.18
15283592.08
15437808.67
15723735.50
15922888.24
15886673.69
15629536.79
15160300.39
14969728.11
15258459.25
15324234.89
15312748.97
15417524.52
15808655.42
16352664.56
16321483.70
16217856.55
16822012.78
16847843.37
16844185.18
16834633.90
16921530.87
16710269.55
16399033.65
16011640.84
15886735.75
15665827.04
15907590.96
16051686.00
16303497.18
16603228.00
16409681.52
16296447.14
16154776.51
15828041.23
15609088.70
16482627.23
16487056.72
15861916.65
15412632.10
15327834.62
15566573.44
15566392.27
15206273.13
15257875.02
15460190.41
15516640.72
15566177.71
15349604.57
15503200.14
15764054.36
15810524.34
16039858.09
16378245.34
16653185.47
16542935.02
16150136.69
15885014.03
15880539.41
16090625.67
16177402.02
16495464.17
16419335.52
16225672.36
16150185.07
15996319.13
15931442.36
16156351.41
16231612.81
15928544.48
16050922.91
16249180.03
15848577.84
15902453.57
16178314.54
16377528.85
16103437.84
16327435.47
16114598.45
16142117.03
16132219.22
15793698.47
15405126.23
14714915.69
14106104.51
14152543.95
14816267.79
15502580.56
15686779.57
16146597.49
16589129.02
16525809.66
16381241.12
16383071.77
16400822.73
16451426.48
16422669.63
16254177.12
16156908.29
16282514.82
16522030.13
16357462.01
15947074.28
15906085.56
15477477.52
15492222.29
15655868.95
15646166.21
16043650.10
15919597.12
15574227.16
15665583.00
15504174.51
14610582.75
14567123.87
14658162.54
14840109.22
15573748.26
15543943.20
15457997.22
15423385.71
15420528.11
15772618.22
16025634.94
15627803.33
16013428.66
15829532.54
15712151.18
15722825.31
15888008.93
16180472.00
16333399.73
16161134.26
15729049.38
15751099.88
15792393.35
15553703.16
16054549.46
16543126.14
16650412.25
16800862.13
16754228.05
16580530.57
16697752.79
16841675.75
16899305.69
17075805.77
17221671.97
16840628.96
16750181.19
16332305.33
16596170.57
16930978.51
16795507.98
16572660.14
16574718.47
15946863.62
16305048.10
16157729.16
15888323.33
16251904.92
16150864.45
15834895.14
16002395.41
16215574.23
16205952.73
15901639.52
15563052.47
15780841.97
15622596.82
15705404.77
15587668.83
15138966.39
15563126.57
15618202.53
15502124.95
15629848.44
15247692.47
15272915.42
15257933.91
15599230.96
15869558.99
15891260.39
16044485.23
15856388.19
15439024.97
15089990.42
15209551.09
15450952.33
15551140.09
15610266.56
15775497.92
15875956.17
15566866.58
15377238.73
15327406.40
14917537.19
14727116.50
15083632.44
15055774.70
15123316.70
15381880.53
15420064.58
15462960.38
15072196.90
15009980.30
14797440.07
14401021.22
14441395.11
14835249.14
15059186.24
15111888.57
15460738.16
15382519.53
15667816.56
16011624.50
15994402.11
15894116.49
16009410.99
16272594.05
16653959.41
17137633.61
17526800.42
17716541.39
17746219.12
17599627.29
16893232.00
17047892.98
17093304.02
16789179.54
16796789.15
16333205.81
16214982.12
16240533.25
15476755.07
15801042.32
16032731.97
16128610.15
15209238.52
15701569.22
16055029.11
15764940.81
15977047.57
15829997.55
15791970.33
16300015.84
16678610.41
16640386.10
16414542.30
15847794.22
15302229.53
15449581.94
15637229.25
15521885.71
15534903.51
15572974.02
15475745.25
15368117.57
15549970.80
16013174.05
16674229.13
16885176.75
16607652.26
16184540.40
15790346.70
15566307.51
15303210.50
15217969.14
15576139.24
15344751.13
14606988.40
14070138.24
14122077.30
14261485.49
14826535.93
15378410.31
15701101.49
16249457.04
16748746.92
16952212.03
16873695.81
16465216.80
15883520.33
15703368.11
15886218.02
16150526.94
16382286.45
16421095.22
16130240.52
16185179.17
16672988.73
16532555.22
16126409.80
15843172.91
15843490.41
15721146.22
15830177.18
16205222.46
16621921.56
16187548.49
16019805.51
16077140.30
16314105.35
16291343.96
15919508.05
15698291.43
15409343.80
15228947.42
15226537.56
15542264.53
15653059.68
15727994.91
15913799.90
15818066.99
16018035.49
16300767.01
16398651.30
16758767.90
16790694.08
16628469.47
16692655.80
16285091.40
15732429.51
16046482.88
15551229.35
15637889.23
16518203.88
16559921.99
16285788.67
16532571.09
16861577.97
16662232.09
16350048.15
16590151.67
16471452.97
16098773.47
16152913.75
16323321.47
16313452.24
16265806.38
16428280.75
16337801.77
16455058.25
16198181.37
15874301.04
15813215.36
15965718.97
15644283.86
14907280.07
14530435.06
14242394.10
13921318.63
14111327.93
14163019.02
13973422.62
13400532.21
13096163.57
13484147.66
13244155.45
14154319.81
15232419.96
15927258.18
16608122.59
16703954.38
16695378.98
16398873.19
16207800.40
16819229.07
17709723.00
17845952.96
17511030.91
17320124.85
17162836.12
17179238.56
16897775.19
16882817.38
16937474.58
16435589.49
16503401.14
16687580.13
16519600.36
16753122.99
16761782.37
16401548.93
15920013.19
16201635.78
16290950.40
15850266.16
15580465.56
14737975.40
14606608.54
14915459.62
14746504.11
14329278.30
14863610.53
15179135.19
15362740.83
16049873.51
16196789.37
16254871.36
15823776.10
15819814.80
15621318.82
15549350.44
15341040.23
15511760.28
15765980.72
16008809.55
16250057.87
16463890.57
16882115.94
16567460.96
16237225.85
16573578.91
16628181.61
16674484.96
16323208.91
16248987.92
16102659.72
16024207.48
16378797.48
16503241.98
16074309.33
15602997.75
15283205.01
15753274.48
16244308.51
15868188.96
16431661.10
16648651.08
16057830.81
15696006.19
15693251.53
15571393.36
15348053.04
15349170.26
15655510.15
15484150.26
15741901.11
16325495.39
16255649.21
16059083.80
15943930.74
15778173.23
15775063.60
16124004.37
15621083.51
15620075.35
16162105.00
16436552.49
16863064.64
16563658.65
16350286.59
16300183.89
16055946.19
15935182.18
16021260.47
16275015.18
16412967.03
16093937.91
16474099.93
16487968.38
16570693.16
16307429.65
16405364.37
16131873.69
16125737.78
16204159.24
15944419.51
16187383.00
16305394.36
16232227.69
16775424.74
16422025.91
15935022.86
15956274.45
15848940.00
15632743.97
15675415.17
15790519.43
15796496.58
15925508.15
15967585.87
15897535.30
15854802.79
15838955.63
15492177.49
15669154.62
15761322.57
15713814.19
15783274.78
16109285.05
15674095.33
15808353.10
16218487.50
16010781.11
16318844.12
16366129.60
16039298.27
15982882.57
15977392.54
15708028.44
15830664.20
16185758.44
16097275.09
15941990.16
16043315.65
16030209.50
15932518.13
15864471.17
15861457.73
15368851.06
15567992.82
15788628.60
15689993.10
15668389.62
15775651.94
15826572.09
15803366.08
16060906.12
16065338.23
15890113.25
15863363.99
15776188.05
15635148.27
15625586.82
15969465.97
15743749.39
15670170.97
15736752.36
15706246.74
15649156.19
15667845.58
15723052.26
15777727.84
15782032.74
15907469.95
16000724.13
16234798.35
16111045.24
15592614.86
15593189.07
15875832.75
15816493.18
15956181.77
16105183.89
16195654.81
16056788.06
15915067.32
15653326.37
15581032.51
16027320.70
15846752.05
15925892.62
15985146.85
15748945.69
15929031.53
15999769.67
15904470.59
15743529.32
15807260.08
15608800.60
15597019.30
15898605.56
15823632.82
15910075.63
15910603.12
15690462.07
15923184.75
16102064.18
15928628.21
15965921.16
15813750.20
16065332.98
16166857.61
16023229.94
15985346.51
16021653.91
15992177.78
15987312.01
15702377.78
16417436.37
16052791.80
15991414.28
15863379.04
16160169.79
16034474.27
16009517.68
15934515.10
15688461.86
15739889.68
15754539.00
15768456.58
15769358.53
15820589.35
15845811.85
16084439.66
16020871.87
15911706.23
15802520.88
15805932.49
15799197.54
15794736.95
15797454.25
15426219.63
15727468.25
15857949.89
15805823.58
15849235.79
16188524.31
15878598.90
15739966.05
16007733.47
16007881.75
15657623.24
15951187.66
15846727.77
16083061.29
16125159.55
16157076.41
16136014.54
16141405.81
16412845.32
16115776.49
16352604.81
16255642.51
16079699.59
16074651.13
15916057.41
15912040.75
15993914.78
15893665.53
15579678.27
15785555.86
15848913.29
15762649.61
15772333.07
15790888.45
15781554.58
15800915.99
15812062.42
15846625.02
15763261.13
15751716.11
15900811.26
15911170.66
15947311.49
15962336.39
15633839.35
15973418.64
16153916.84
16126124.93
16130191.21
16185549.15
16200571.50
16217704.56
16196159.43
16170145.79
16173648.77
16284716.04
16326705.70
16386334.03
16208274.22
16244743.92
16467943.97
16391979.68
15971509.15
16074671.20
16317574.60
16296528.56
16234816.29
16320667.39
16267903.79
15951821.47
16070024.12
16293523.74
16191961.39
16158875.16
16201955.63
16192671.81
15941431.43
15910664.13
16224506.67
16289390.65
16406824.19
16338131.60
16170379.37
16412169.98
16270973.49
16205451.25
16665396.06
16323012.88
16309552.10
16469947.00
16793813.01
16637774.98
16136207.52
16579065.93
16489241.61
16404748.03
16436300.77
16393275.57
16433922.88
16032804.36
16281558.06
16426762.22
16536837.77
16213199.01
16120143.92
16210686.89
16236782.94
15973202.85
15804606.09
16143137.41
16365233.29
16314100.19
16442456.05
16583410.78
16760980.76
16453233.48
15813952.01
16420569.71
16335639.24
16016615.95
16124354.91
15952475.84
16405784.22
16518864.28
16224282.74
15933984.76
16148519.88
16306584.90
16364178.70
16486828.99
16530802.72
16506786.58
16459793.42
16511321.07
16580108.26
16636711.67
16473675.05
16459058.76
16942614.03
16825822.19
16559831.05
16454502.00
16493979.20
16589138.78
16135154.86
16375365.62
16446486.98
16395920.89
16407640.58
15724808.63
16629710.04
16319863.14
15869782.72
16305234.08
16637114.95
16403413.60
16308798.83
16458537.73
16564450.41
16804013.70
16511827.90
16391665.11
16466746.25
16382948.53
16183739.25
16277478.53
16368640.57
16416410.65
16218567.87
16417835.49
16112834.62
16320989.96
16461869.56
16485928.50
16459967.69
16789243.80
16574058.29
16316185.63
16333933.10
16504402.52
16020360.95
16130441.35
16578244.62
16461882.14
16305372.36
16163586.52
16177273.58
16152642.61
16156181.23
16194597.14
16354707.08
16275883.60
16396132.01
16335949.05
16141333.89
16568514.35
16388699.21
16135776.66
16221489.05
16286381.17
16378158.50
16443181.90
16071961.13
16585720.35
16701396.44
16344394.86
16275747.21
16366092.33
16392814.32
16181257.36
16140823.21
16253874.77
16391688.34
16460857.84
16449566.54
16433234.25
16408542.61
16371775.19
16181936.53
16257012.90
16427782.64
16426658.64
16459126.49
16491173.11
16366646.99
16289569.19
16238140.34
16275505.36
16274897.07
16415303.03
16328036.50
16236934.92
16269272.08
16275407.59
16238488.34
16481242.38
16314312.07
16192421.58
16252431.60
16286188.99
16541800.86
16377457.75
16280271.03
16338156.78
15938977.55
15860915.57
16133998.55
15952350.65
16297838.75
16497596.61
16351975.93
16389654.87
16453717.46
16424524.79
16414607.40
16281860.52
16312747.95
16474118.42
16657193.53
16419463.15
16153754.76
16227901.05
16456667.27
16379727.29
16334436.95
16357264.09
16118856.13
16252846.18
16359300.55
16378973.08
16415662.32
16375568.24
16348777.97
15984201.60
16367518.63
16603965.47
16523232.18
16066536.19
16061957.21
16497593.68
16419773.50
16241158.37
16310329.70
16343427.00
16290967.12
16187690.60
16182562.29
16231679.42
16265051.10
16319216.25
16606963.93
16453815.42
16595197.57
16284947.39
16250093.73
16274719.93
16316248.13
16382510.16
16613051.24
16311344.82
15754306.13
15804903.91
16283165.88
16487927.82
16413004.02
16436872.32
16423562.97
16400653.17
16001415.57
16411202.91
16621307.66
16237079.93
16327328.92
16463595.99
16400254.24
16351596.63
16361874.98
16417653.84
16403137.51
16458556.42
16508603.53
16108380.23
16414231.73
16407721.63
15930675.28
16099728.60
16477011.88
16125934.73
16282506.56
16445972.35
16424710.87
16458249.34
16522223.19
16654817.37
16708929.95
16801802.30
16169306.01
16127541.41
16251860.54
16438598.60
16407229.92
16469828.82
16508136.97
16171867.18
16272669.68
16443704.68
16344966.05
16485361.56
16307460.51
16080936.36
16074406.87
16088812.20
16279929.14
16453960.32
16181830.67
16155080.63
16200456.47
16465262.81
16460725.69
16215234.27
16263006.81
16174804.68
16236222.33
16399900.21
16357040.66
16259386.60
16293036.43
16397256.07
16419270.51
16405801.11
16176931.25
16181791.68
16126067.06
16830539.88
16553398.16
16363830.45
16101499.12
16419927.60
16675424.86
16915913.49
16865194.29
16566723.70
16491660.40
16601815.89
16532896.17
16510895.94
16361537.02
15926014.65
16400576.96
16669579.53
16287667.55
16088356.41
16223760.57
16653006.43
16431645.24
16075656.98
16243340.23
16484948.68
16363020.07
16296418.12
16334419.98
16300066.72
16304852.43
16348322.67
16367659.61
16331033.01
16329510.95
16379374.97
16374538.90
16336709.27
16309557.75
16314316.46
16576493.13
16452106.28
16355348.07
15936011.39
16351223.11
16592148.84
16415486.56
16448538.53
16458891.83
16673566.23
16473144.65
16300190.46
16326790.06
16215381.01
15959376.58
16091873.13
16232950.68
16167497.55
16142146.30
16013723.75
15735561.41
15794856.36
16076764.43
16054614.14
15730336.67
16316923.60
16481996.45
16595780.10
16655034.72
16670181.38
16712538.56
16628243.03
16295925.52
16446645.69
16551518.72
16509262.77
16499695.55
16018648.19
16328270.72
16391013.66
16385549.69
16580899.48
16345772.69
16366355.39
16357964.93
16730737.12
17004410.38
16619368.83
16521176.67
16880091.12
16618817.72
16125977.87
16557938.42
16586584.90
16566256.10
16697888.80
16519869.91
16227480.83
16084172.96
16260727.59
16304930.94
16008095.43
16399071.83
16381136.10
16298945.42
16553242.53
16386573.14
16318128.12
16317593.28
16304425.52
16322595.95
16328797.55
16367612.80
16117934.48
16333036.98
16423753.64
16707369.00
16447408.31
16309305.69
16842745.16
16487136.18
16508826.36
16649299.88
16728176.52
16975329.42
16241571.50
16073236.12
16327722.64
16109233.05
16008309.72
16435212.54
16456863.72
16188097.75
16352564.06
16510263.15
16335923.52
16237035.56
16404959.20
16793943.64
16668547.42
16408667.20
16502953.51
16543742.94
16473175.83
16494837.45
16206372.90
16415437.12
16793512.26
16398629.65
16490670.49
16236050.02
16239239.47
16521583.76
16468045.21
16782616.95
16866188.53
16591843.28
16724912.78
16345941.29
16489152.29
16706930.77
16452523.02
16662360.99
16318351.20
16055838.26
16368313.15
16516790.21
16412560.26
16422567.61
16276209.25
16292280.36
16588261.13
16376935.86
16417746.80
16533828.83
16499563.91
16901512.80
16493530.68
16060154.57
16288572.01
16088434.05
16287277.58
16473538.91
16421790.59
16058682.77
16318563.67
16157720.92
16305710.23
16616366.04
16416364.44
16399043.95
16460735.43
16474842.62
16479557.23
16282487.39
16357040.70
16615243.31
16812334.92
16816653.77
16484579.10
16326919.45
16388659.21
16399027.30
16719673.68
16543514.25
16625643.73
16685325.96
16668914.04
16641201.69
16627210.62
16692429.51
16639358.37
16533571.40
16460319.84
16231511.84
16406993.63
16035438.06
16060910.32
16331880.30
16501440.12
16553027.58
16511831.80
16799103.25
16305741.50
16319198.13
16493752.99
16555951.73
16474528.61
16265377.98
16293921.90
15860133.28
16295933.46
16748616.93
16357533.12
16547063.61
16801536.02
16813236.20
17077427.09
16916975.10
16996101.95
16861196.75
16720697.20
16884286.70
16372864.75
16611384.34
16797314.58
16828056.64
16857820.67
16772191.88
16718190.19
16638263.64
16655909.74
16583155.50
16501125.88
16648787.57
16867992.16
16500109.31
16488917.72
16565459.19
16663811.99
16605780.80
16573677.27
16774406.53
16486171.13
16478010.11
16507619.35
16438283.72
16475977.85
16580585.23
16624358.78
16423222.21
16756487.95
16862262.37
16806691.48
16868497.14
16828680.52
16756251.69
16348633.48
16739966.51
16781809.38
16627065.38
16404616.49
16702934.33
17064703.76
16717713.78
16637376.99
16753043.95
16764581.63
16357048.07
16536319.57
16931138.87
16789210.23
16834051.12
16834357.63
16807045.52
16776140.17
16545984.31
16915196.56
17180564.62
16814954.95
16633737.21
16777817.60
16700242.71
16587488.74
16717339.79
16742818.57
16759519.03
16721394.76
16735265.99
16702185.68
16604474.68
16644013.64
16714227.62
16638372.02
16738432.73
16900441.63
16822467.72
16745715.54
16916014.30
16873761.58
16848454.70
16842818.15
16844606.19
16825577.41
16818045.63
16790203.62
16795883.27
16598835.12
16464831.05
16749076.61
16770284.41
16738406.75
17040384.03
16748790.64
16211734.07
16661597.73
16761401.80
16468457.61
16948338.69
17085750.83
16729043.08
16369839.52
16515157.22
16814535.29
17013946.80
16815334.18
16430456.19
16801751.03
16807955.91
15918598.38
16442952.53
17012123.56
16832444.44
16861511.67
16821386.81
16743169.45
17028975.23
16902305.34
16737035.33
16722048.97
16836317.70
16956633.86
16654864.00
16623763.53
16813428.29
16827009.33
16255599.88
16701636.52
16991872.62
16701479.86
16753539.50
16574556.52
16528675.49
16739779.28
16678406.41
16686602.65
16754550.16
16825125.71
17147730.80
16423255.88
16504483.06
16775284.38
16714795.79
16705080.72
16638175.11
16574073.31
16549680.00
16570821.33
16645743.18
16716612.35
16646869.95
16974471.68
16877017.60
16734942.47
16612374.99
16668480.76
16875119.00
16425464.97
16948877.76
16921612.88
16923372.42
16914457.00
16885151.66
16850745.10
16815626.87
16701576.08
16707053.00
16835612.20
16764526.42
16741914.32
16742299.82
16716019.50
16627521.03
16553746.91
16561988.86
16698342.03
16713425.73
16655876.65
16654901.75
16716477.16
16769767.43
17078400.50
16868900.35
16884643.09
16797633.07
16578758.68
16607389.99
16239219.44
16181580.19
16539920.79
16899433.48
16757320.05
16654458.40
16692913.89
16654507.73
16756444.60
16797987.11
16738437.48
16755148.38
16825802.55
16803694.53
16499556.21
16653737.35
16885510.15
16870530.09
16894480.72
16895005.92
16858186.61
16891261.42
16954927.97
16931816.89
16837003.45
16703614.34
16610910.58
16661252.32
16775407.74
16636236.45
16533641.96
16280459.51
16497870.46
16458042.66
16543737.61
16716426.22
16278692.03
16429352.47
16607163.01
16469838.39
16473116.35
16455776.91
16515012.98
16592910.80
16643722.24
16808737.33
16766471.44
16692823.86
16673885.35
16706709.13
16753818.10
16839402.65
16929728.48
17011360.88
16927261.87
16524071.47
16969821.34
17003317.16
16957680.64
17094746.86
16923680.49
16711137.55
16495060.27
16740785.91
16766288.66
16804608.63
16837440.28
16793274.24
16711865.33
16745361.48
16788553.92
16779235.77
16660545.47
16576110.64
16756996.78
16355955.20
16406769.68
16546343.69
16748086.83
16670981.75
16747535.23
16773649.75
16709635.79
16678419.45
16831534.28
16800845.62
16797067.74
16481323.21
17165527.12
17008006.84
16768374.38
17156509.14
16964267.20
16734249.54
16861713.65
16864640.55
16949164.16
16852477.12
16645500.98
16849494.15
16731155.70
16698047.99
16697171.51
16718247.88
16721588.15
16818921.28
16820467.63
16762111.98
16741109.66
16456869.39
15709895.13
16331484.38
16780698.71
16207960.26
16629240.68
16843768.47
16821435.09
16722258.03
16774964.61
16200920.77
16417135.33
16914193.50
16765969.02
16773464.95
16804558.13
16735070.81
16687742.34
16411796.09
16578833.25
16987112.73
17145855.96
16918176.30
16708032.29
16706317.27
16919971.68
16826773.99
16674990.78
16774495.23
16834410.02
16447995.26
16497400.04
16763885.75
16629231.34
16622175.45
16415805.66
16286844.03
16334347.50
16599189.02
16263601.65
16088801.41
16567912.17
16774797.14
16733864.09
16669798.58
16427778.93
16363262.17
16841872.96
16898606.34
16561980.53
16236160.14
16582428.82
16594302.85
16449567.57
16294044.52
16062553.41
16511271.33
16755309.05
16784573.33
16805341.26
16767926.29
16776072.50
16695660.80
16743571.13
17040780.51
16750375.97
16672550.16
16930729.81
16902336.03
16869363.56
16849101.21
16817837.73
16749694.10
16977359.32
16896128.44
16720293.20
16722343.57
16264636.36
16420406.83
16603545.79
16525343.77
16527055.25
16185122.62
16163457.30
16644672.72
16410881.84
16733445.88
16907464.56
16662398.12
16479474.63
16317084.04
16844791.31
16880773.71
16667413.78
16957542.12
16902357.13
16679111.53
16825819.50
16993214.38
16808481.91
16687179.37
16834104.01
16996464.88
16581896.79
16557182.84
16985469.73
16916278.16
16914429.56
16864672.13
16752233.06
16818859.41
16832001.04
16775035.06
16693006.34
16702224.51
16659763.23
16618634.38
16588407.04
16491759.67
16502484.98
16561352.68
16675245.51
16934083.25
16836691.73
16696797.91
16819255.63
16800017.76
16761225.12
16725910.10
16658546.92
16627446.15
16684791.75
16681021.35
16543802.37
16559944.75
16635495.65
16725271.32
16735010.18
16764671.65
16958578.23
16866678.19
16797584.39
16787533.35
16712546.60
16329821.10
16487869.77
16980106.64
16862174.62
16703825.25
16713630.83
16755414.08
16766197.06
16692001.66
16749384.12
16776287.12
16770356.04
16782446.08
16994532.27
16875780.41
16697836.06
16255081.43
16385098.05
16648091.37
16609684.84
16666022.33
16702125.24
16715054.28
16704000.79
16664535.06
16689673.87
16743227.71
16392073.49
16401558.77
16709558.63
16630399.87
16877507.67
16482691.54
16592517.52
16775152.64
16628729.99
16670477.06
16743463.77
16688432.47
16685670.95
16641444.80
16543227.70
16961271.58
17033876.64
16611155.50
16577324.04
16652612.06
16715208.50
17077127.92
16561708.01
16582127.64
16881474.02
16630840.24
16662487.85
16697109.21
16609049.38
16813357.70
16803029.30
16579926.40
16646497.34
16705464.24
16870421.13
16625241.91
16504277.75
16618584.05
16628351.53
16694359.81
16698844.34
16682206.66
16834615.12
16438054.60
16385933.74
16666279.06
16616953.06
16635048.50
16639070.38
16685175.71
16698131.65
16712039.79
16694608.38
16672554.28
16938606.96
16830561.15
16699529.59
16553526.15
16729130.61
16769912.68
16580033.44
16572862.91
16626869.67
16633668.22
16843239.41
16685601.49
16498341.15
16147587.23
16572058.28
16636232.67
16534231.29
16564184.82
16532085.91
16527808.96
16181574.61
16538139.84
16626432.38
16532843.60
16540124.80
16517660.39
16543433.37
16722080.87
16669727.10
16983194.17
16889359.32
16702500.12
16773545.60
16726626.76
16685973.77
16684188.85
16717155.07
16788561.09
16953094.40
16476633.95
16502962.38
16831920.81
16401825.78
16598878.59
16816873.76
16705002.40
16691285.93
16934860.18
16865533.38
16693159.66
16675014.01
16609121.13
16590310.06
16423308.44
16522820.28
16606784.29
16489343.65
16718500.55
16463559.74
16487190.96
16983560.61
16862940.54
16586368.60
16516327.46
16763762.82
16689609.14
16696453.66
16910339.79
16684228.46
16626146.95
16694519.88
16724946.03
16952917.52
16835653.80
16700819.73
16816671.62
16833036.90
16770271.67
16752960.86
16452130.52
16449047.02
16974627.43
16981899.94
16553937.26
16675262.58
16541569.27
16585641.81
16766865.10
16712142.52
16753113.87
16804356.95
16716111.09
16657317.26
16715487.73
16637396.00
16643828.66
16662004.54
16652586.89
16656070.43
16251790.10
16765583.32
16751424.20
16554464.61
16635443.38
16660946.95
16477751.07
16598897.22
17060993.17
16867851.71
16817367.63
16442182.12
16382991.83
16715827.68
16575531.17
16546534.32
16554025.90
16545555.63
16543395.12
16578438.21
16525843.97
16204222.45
16605338.26
16728426.28
16658582.97
16637731.84
16540505.48
16566546.03
16644602.95
16646828.77
16638185.20
16659518.66
16628023.70
16594087.40
16592428.05
16805076.25
16658477.39
16540759.13
16586512.04
16621717.51
16269910.10
16716736.01
16640658.68
16634026.54
16699318.80
16631868.13
16436274.94
16782420.60
16611226.07
16547244.48
16654897.11
16650162.14
16634387.71
16607126.38
16670809.12
16646148.57
16634834.53
16904672.53
16468209.72
16804938.81
17158130.34
16811378.62
16211542.17
16514771.52
16606280.08
16456094.61
16487286.39
16606350.23
16703035.40
16735675.63
16703422.94
16752663.47
16747385.31
16474926.30
16596209.02
16710767.77
16612278.13
16608528.17
16724638.06
16700642.09
16320256.86
16483066.44
16713291.02
16201947.46
15920205.58
16518412.17
16542182.93
16553492.63
16692895.96
16664515.96
16625191.33
16023657.27
16338360.80
16971509.26
16680336.06
16461189.16
16000568.67
15943702.32
16568031.26
16740212.99
16362282.01
16576537.58
16410128.53
16839820.13
16146409.65
16119064.16
16744909.53
16637729.22
16591306.55
16651215.71
16633982.42
16658704.70
16592632.71
16298328.38
16075634.91
16551620.20
17096056.11
16724439.30
16622211.59
16630716.61
16969670.35
16803166.39
16526447.57
16596935.86
16664444.13
16659546.32
16750610.66
16657579.76
16237220.85
16694704.65
16792572.65
16765082.27
16684521.03
16590932.82
16272178.30
16760794.12
16946562.68
16838895.76
16670705.76
16562895.02
17024398.40
16724386.46
16621128.94
16824285.40
16396359.94
16629794.91
16825448.20
16622181.02
16614636.27
16567273.25
16486367.77
16491899.79
16204349.43
16766884.22
16164506.19
16635445.96
16631726.13
16683205.23
16692739.66
16605663.62
16575383.26
16579916.89
16927963.06
16514453.67
16414972.80
16654616.35
16396576.48
16240821.45
16528025.76
16612117.01
16547747.63
16543603.37
16491362.03
16820941.37
16916561.13
16651777.45
16613662.28
16649671.42
16609598.09
16620840.66
16709495.46
16731826.16
16698583.44
16659668.34
16714832.19
16810484.24
16723015.66
16576390.31
16559026.22
16226200.92
16714324.86
16447572.36
16536947.88
16596546.19
16479289.32
16621999.13
16463448.21
16474431.73
16868575.30
16609321.95
16548987.04
16663597.02
16664999.58
16936345.97
16692881.27
16539278.80
16611220.97
16559431.15
16512121.50
16498360.06
16480641.79
16848816.45
16704512.27
16518598.45
16161679.12
16264729.07
16459857.18
16254026.20
16744414.47
17016761.40
16638702.53
16620739.94
16706218.96
16306847.97
16673727.48
16786234.73
16938993.19
16761135.54
16593526.79
16642964.04
16569107.71
16191848.32
16323243.28
16461232.37
16002118.70
16075259.36
16313939.82
16500877.34
16539913.34
16732578.25
16724133.60
16504911.99
16579448.27
16595957.38
16564126.35
16606724.50
16336450.36
16311559.23
16638026.86
16536588.92
16757397.24
16664878.15
16553024.47
16619594.33
16615852.35
16627394.14
16629740.05
16631456.64
16396597.40
16189021.86
16776744.14
16850319.66
16584175.59
16666318.13
16655498.86
16269920.91
16538820.96
16510469.29
16531156.79
16646376.24
16264800.53
16458915.66
16623179.56
16344848.11
16485487.22
16584135.68
16510363.23
16674615.21
16597764.79
16504145.22
16252537.34
16468394.16
16608967.17
16586975.00
16620638.37
16452292.51
16485525.31
16612208.41
16552467.26
16511979.52
16369806.75
16504138.37
16581823.52
16540469.29
16581905.02
16562063.51
16552763.62
16935433.01
16906045.24
16375167.45
16413101.49
16682872.65
16628872.12
16738620.67
16685527.36
16401873.46
16661058.46
16631882.21
16565623.58
16613744.83
16573193.69
16217336.94
16053702.22
16442437.58
16570754.56
16335188.16
16471863.25
16650869.10
16682664.31
16700169.16
16789459.71
16693893.99
16584717.71
16557667.21
16138589.72
16595604.81
16209803.35
16344967.51
16978896.25
16861060.38
16532984.41
16559714.57
16580140.97
16571397.54
16604340.03
16607898.31
16603009.75
16604359.86
16281634.08
16159504.41
16694408.18
16767621.02
16692228.64
16712864.85
16627398.90
16667485.67
16661489.37
16630995.45
16637887.80
16640809.86
16585337.04
16533340.24
16551299.97
16841568.68
16595035.37
16389847.90
16383471.77
16316798.41
16172114.41
16417643.24
16396029.03
16350716.78
16524321.45
16521413.69
16286446.08
16254750.79
16518141.66
16690672.42
16690362.12
16812738.61
16394470.15
16268574.05
16835288.41
16521237.40
16265227.83
16698168.74
16726483.38
16611209.88
16616789.02
16588115.67
16677686.44
16419345.15
16435879.84
16891597.91
16631548.08
16639689.97
16628760.87
16617388.35
16646080.37
16615051.56
16821726.50
16683453.71
16774322.35
16936188.51
16750708.93
16169560.14
16311583.62
16738437.61
16494963.75
16541374.42
16307661.67
16475210.08
16666300.63
16399332.24
16429564.69
16109525.55
16324923.21
16455376.86
16292418.01
16358335.79
16470191.81
16414875.13
16444980.60
16440190.06
16360025.73
16383360.84
16474785.31
16498857.22
16505226.44
16510041.14
16508633.88
16368821.75
16105275.71
16393705.01
16689083.19
16627274.68
16686701.95
16761192.41
16727121.40
16594427.07
16690332.17
16701190.56
16708831.65
16774657.77
16763100.53
17007098.32
16647677.09
16536273.52
16761460.25
16657893.94
16360862.29
16672305.86
16558485.32
16845555.00
16655205.88
15741909.75
16234087.81
16484533.61
16700271.88
17099659.19
16269136.01
16850554.53
16787376.57
16486248.11
16607014.20
16598611.20
16647261.29
16659260.04
16596614.21
16596013.20
16651230.80
16534363.35
16525712.07
16786005.27
16870049.26
16629703.21
16549437.10
16628096.77
16629538.65
16607679.18
16627600.92
16693129.52
16755842.48
16729822.61
16688426.60
16641930.48
16667164.85
16636761.78
16376860.86
16614217.31
16777498.84
16536156.70
16629807.08
16511687.56
16560040.48
16588293.50
16571529.95
16559878.88
16598774.07
16790145.39
16654325.03
16566497.23
16699601.16
16633595.68
16591629.27
16586352.89
16588951.30
16600674.87
16601938.05
16566341.16
16564437.74
16619220.46
16388841.76
16282817.91
16592560.32
16587244.91
16681348.81
16671418.44
16645955.56
16703519.51
16707009.58
17033322.80
17165228.93
16503491.13
16211065.46
16497982.58
16782500.08
16119105.97
16672053.59
16578071.68
16504588.69
16669845.37
16640332.93
16559624.12
16582252.82
15771777.69
16095759.51
16291184.24
16093035.26
16374197.35
16637090.97
16567114.43
16576772.23
16540796.50
16551862.27
16816538.07
16668713.12
16887907.06
16774361.77
16552795.94
16695112.79
16645825.57
16631741.22
16593404.95
16205597.93
16310288.09
16518883.39
16310960.79
16477796.75
16715668.03
16646643.59
16699273.44
16736541.20
16890431.57
16703473.19
16490660.75
16647971.36
16527512.23
16640998.35
16596040.52
16752628.90
16654276.89
16478827.42
16209325.54
16567944.72
16572337.71
15835277.00
16404246.53
16522039.85
16611952.02
16957671.99
16615938.98
16432393.59
16505446.14
16240261.04
16306288.10
16527501.96
16435773.67
16251054.16
16421554.62
16527918.95
16476241.19
16415981.00
16388466.67
16398158.75
16341646.03
16402049.20
16081413.75
16179771.74
16434556.71
16330391.02
16301905.32
16243966.48
16180261.15
16121841.27
16094922.33
16119785.38
16159669.74
15987282.79
16521757.25
16389462.70
15689319.93
16276558.47
16297237.83
16475579.85
16348542.26
16475693.48
16492518.92
16239451.43
16399010.79
16778468.96
17014289.59
17179285.06
16774114.75
16554994.89
16793669.60
16937711.60
16892184.78
16881150.37
16867944.89
16808656.32
16784122.32
16733598.84
16673035.16
16841366.46
16649148.05
16502695.19
16573047.02
16622314.46
16651020.33
16609655.70
16884671.31
16104728.69
16393205.27
16570236.39
16530879.49
16610904.60
16549051.52
16635107.47
16795309.09
16331083.11
15936102.53
16325719.08
16659663.75
16647837.98
16762383.48
16946281.08
16982979.82
16890169.04
16886585.22
16846127.38
16766454.50
16750657.28
16691006.55
16691217.02
16777324.12
16791123.10
16794164.37
16844894.69
16841602.62
16823719.98
16509210.03
16472286.33
16726638.95
16697877.16
16696195.35
16614629.21
16832832.94
16953404.52
16683643.66
16314116.62
16317116.08
16430106.84
16435767.47
16390170.91
16280131.84
16243786.48
16159454.21
16500661.71
16335079.63
16206868.78
16177425.52
16208903.85
16240788.32
16055358.51
16137093.97
15894999.10
16095696.73
16294797.06
16171632.51
16488922.34
16051068.51
16014334.61
16148022.30
16308814.72
16580131.67
16660732.63
16760104.26
16783706.69
17030666.24
16943065.14
16706459.93
16738640.15
16713334.53
16677078.46
16663581.58
16413388.12
16273366.30
16546863.90
16845395.38
17016473.01
16823718.58
16700022.88
16718262.60
16927493.79
16806476.05
16648871.20
16704623.53
16758414.64
16844755.68
16667987.37
17026062.60
17153429.82
17058028.48
16497510.28
16758101.64
17126579.31
16706499.75
16837025.96
16784764.21
16513710.78
16603116.93
16836666.33
16683660.54
16425486.33
16524217.65
16423524.65
16301065.68
16161826.95
16148464.72
16580801.29
16323650.61
16187356.36
16335715.44
16009851.01
15940808.07
16149385.48
16294859.80
16281926.50
16259347.54
16589570.24
16450023.96
16130029.00
16210069.29
16405001.09
16343046.42
16512722.21
16648810.98
16497762.27
16472155.25
16776532.20
16780162.89
16584594.85
16461862.96
16503328.82
16518751.94
16525209.95
16724276.62
16873099.66
16988638.63
17128311.62
17173063.52
17089840.05
16583918.98
16709552.02
16937775.47
16887410.94
16893323.89
16898982.78
16857667.74
16808504.10
16763383.57
17099428.85
16933448.90
16374685.01
16746075.57
17361799.96
17092050.39
16715906.50
16752099.72
16731134.50
16455854.01
16431955.33
16530686.15
16491059.39
16385799.71
15919480.29
16210477.44
16142608.55
16034777.21
16003020.04
16030808.44
16026020.57
15987785.82
16136127.23
16272809.55
16322839.28
16482013.42
16671306.31
16569936.73
16301785.81
16155856.99
15944746.98
16018776.42
16148605.06
16172436.52
16659945.63
16362506.05
16276342.99
16578810.59
16805520.86
16775068.22
16821469.41
16765557.10
16627382.36
16563574.88
16595100.87
16631571.08
16627617.22
16672315.44
16706308.24
16755443.17
16812171.08
16837369.01
17056439.55
17319811.79
17251492.31
17105488.02
16981643.67
16938933.40
16977649.49
17026297.48
17119540.80
17195101.63
17115282.42
17111677.01
17066194.14
17010181.41
16999871.91
16926534.71
16927678.28
16882878.36
16821382.01
16812190.20
16804278.98
16757872.46
16747126.61
16760677.74
16773706.41
16690009.50
16620684.82
16968794.89
16621956.58
16460091.43
16475133.64
16409031.84
16068700.19
16122246.15
16391049.40
16373287.58
16452783.75
16376623.91
16266724.71
16197510.81
16160297.19
16251935.66
16361419.19
16215634.04
16376071.93
16602349.63
16606782.42
16506196.20
16955910.10
16652953.13
16921843.30
17074861.72
16905131.15
16544948.88
16672554.78
16958618.43
16815696.45
16647717.88
16681821.05
16659565.51
16445445.59
16505503.04
16517536.67
16543273.01
16538376.59
16204134.31
15994557.11
16214958.64
16413528.76
16415204.98
16231704.26
16518728.49
16719682.98
16223246.95
16331462.22
16646272.44
16832460.62
16966856.68
16889280.93
16862476.09
16737040.56
16571392.37
16716569.50
16829095.06
16741659.91
16414782.45
16768342.07
16685715.15
16510771.74
16182424.84
16502988.89
16585017.21
16378580.62
16403080.20
16296384.37
16376519.52
16561222.54
16245919.02
16584846.83
16614193.00
16592047.52
16519381.63
16630025.14
16832553.84
16870385.62
16979488.20
16987650.29
16945314.50
16913752.01
16825815.88
16962910.01
16693285.25
16476637.79
16537520.24
16518091.96
16536852.48
16536953.13
16725998.58
16403842.55
16153620.45
16305158.28
16452615.46
16621834.18
16772696.13
16766709.50
16838253.01
16892911.62
16742618.50
16411019.41
15889039.08
15984541.71
15987361.11
15670424.45
15563195.05
16154359.23
16317996.16
16125707.04
16135919.99
16265179.40
16330649.84
16576800.71
16717069.40
16726367.79
17227908.11
17367539.44
16752610.20
16879404.92
16929741.84
16677985.87
16635403.87
16770172.87
16758026.06
16825830.29
16871040.63
16862279.70
16846169.36
16664016.92
16606783.85
16604212.39
16522826.49
16519670.44
16775622.39
16847874.03
16450064.57
16424405.18
16798076.97
16451700.00
16105678.36
16020689.97
15845620.74
15372856.50
15364308.76
15773412.09
15891658.75
16078018.66
16326248.97
16583033.95
16771805.89
16648211.86
16853300.86
16864611.92
16636268.01
16754450.55
16955255.17
16892581.69
16706811.73
16686105.89
16831346.71
16797038.09
16656996.83
16630324.25
16413796.26
16380314.74
16499705.27
16309039.91
16829519.09
17032793.07
16693697.66
16690811.78
16682009.56
16606324.31
16844277.67
17131260.20
16871193.07
16486134.01
16583349.41
16570067.12
16410667.27
16338530.05
16278612.62
16193892.20
16159356.33
15854877.93
15690945.14
15749595.39
15751968.54
15790800.52
15734254.34
15686387.44
15751536.63
15854645.54
15781816.38
16365029.72
16286487.49
16325518.87
16352517.97
16049679.16
16068393.52
16527822.75
16632675.36
16421144.29
16458699.87
16402079.18
16355732.24
16607241.75
16786285.82
16933597.05
16862869.49
16754787.06
16776162.66
16980695.78
16500663.07
16519952.07
16633759.21
16457934.34
16162127.92
16289337.56
16505607.54
16543277.46
16425561.53
16597945.94
16640121.93
16436987.63
16339334.54
16649759.12
16226611.34
16094998.25
16585593.04
16267317.21
16068074.89
16226704.26
16125254.16
16695618.89
16706785.48
16464454.28
16140951.20
16519942.14
16857838.23
17009686.19
17111455.36
16824685.88
16725412.50
16623115.41
16470939.15
16323188.25
16199063.57
16134628.00
16032000.03
15702198.61
15420966.58
15451996.99
15972557.76
15549732.96
15849940.73
16111556.88
16341042.14
16347109.51
16581934.83
16478339.33
16187327.96
16203253.27
15904376.41
16147629.87
16194102.99
15918081.74
16017487.51
15717888.77
15437111.45
15693515.06
15976355.35
16211267.18
16474177.80
16787533.78
16739943.94
16963669.86
16997434.39
16969273.33
16802685.00
16406002.78
15790760.30
16082673.74
16109576.26
15984252.26
16024261.11
16044954.96
16170496.68
16704701.36
16867458.97
16670829.94
16443558.19
16488396.57
16721701.36
16908745.24
16953165.33
16874188.97
16802728.62
16807392.16
16829052.20
16878999.31
17038870.51
17108160.81
16836158.88
16635882.42
16291854.47
16161496.75
16464951.31
16571785.56
16171894.37
16622564.99
16298138.72
16119486.98
16330332.77
16274337.08
16388094.43
16566913.52
17009749.89
16783655.60
16782592.66
16902004.02
16740360.31
16630747.10
16663978.48
17005115.40
16757386.24
16800225.78
16948130.01
16783355.46
16641116.80
16470460.25
16081154.40
15957924.67
16277042.02
15786132.70
15431715.96
15224526.27
14956096.73
14876780.75
14648250.70
14813190.29
15307883.39
15082317.53
14994102.08
15101194.52
15065919.85
15117043.43
15248059.88
15644774.29
15746111.44
16182254.69
16491828.46
16436199.55
16320380.10
15876832.68
15668796.56
15867731.11
15985066.79
16336770.63
16409325.54
16743398.50
17260107.85
17356202.42
17430531.46
16825478.42
16937980.02
17284117.41
17543422.22
17664463.13
17418146.69
17204224.68
17148859.53
16818641.11
16937928.56
16912948.82
16729525.33
15856739.25
15690064.16
15584770.11
14867555.26
15253945.87
14979345.73
14632794.92
14486451.61
14181815.46
14192295.22
14681391.12
15122845.50
15409961.01
15422838.92
15455404.33
14848740.51
14628767.20
14899603.54
15564471.30
16300379.07
16884352.16
17338727.85
17550403.39
17699130.11
17903623.84
18066453.16
18151498.69
17708764.04
17332634.10
17419294.17
17659862.97
17909725.67
17940058.27
17802475.60
17644330.25
17493943.05
17356041.55
17241167.14
17127248.20
16876917.40
16652757.86
16855258.86
16785398.18
16579328.89
16474062.61
16230271.55
15841235.35
16029637.43
15955906.72
15703999.31
15466980.30
15204685.65
14675062.16
14023216.21
13900850.90
13666577.33
15258170.93
15798535.48
16275486.03
16246651.12
16829471.43
17475080.92
17354859.37
16952399.46
16688668.21
16409612.16
15979129.05
15995485.51
16294902.29
15999642.02
15620428.11
15420434.03
15472188.54
15846776.05
16396216.24
16825876.24
17036339.21
17276384.62
17571235.13
17503847.05
17183845.15
16938206.07
16746501.09
16592983.44
16392376.05
16391937.13
16309363.12
16119539.61
15920981.95
16340719.67
16165230.86
15900630.37
15734518.00
16052745.53
16179703.19
16178094.33
16110628.27
16207219.45
15917341.94
15708144.95
16075549.30
15929260.11
15511736.03
15114821.88
14806896.37
14378430.19
14121517.34
14209857.77
14763682.84
15495823.65
15598171.85
15916385.49
16742318.32
17392044.48
17440476.46
17297550.83
17120807.74
17340456.00
17247671.21
17937810.15
17949214.39
17560552.90
17101234.10
17142716.48
17074413.68
16937055.19
16932932.18
16851630.08
16771921.71
16649059.58
16114911.42
16425125.96
16040847.66
16003066.69
15746410.74
15625479.39
15478517.71
15495766.94
15139630.57
15192951.63
15923956.47
15822293.07
16485198.30
17277942.19
17307660.56
17371195.44
17616417.57
17836421.35
17869150.86
17643268.96
17550290.33
16942233.64
16605981.76
16288537.59
16404897.89
16622411.71
16503276.77
16289125.40
16182848.16
15892162.84
15580052.04
15446096.86
15514502.13
15335411.95
15660844.96
15856071.71
16100789.01
16206579.82
16291293.47
16441575.15
16508615.16
16617988.70
16721267.35
16789520.90
16862981.13
16565970.39
16800217.78
16841759.28
16360099.34
16223115.66
16165417.17
16184712.73
16303050.69
16553013.62
16628341.61
16482156.65
16618521.53
16712286.04
16703135.16
15926274.54
16031609.68
15642691.70
15521573.07
15433158.39
15742703.87
15404795.05
15405707.61
15562744.06
15847091.46
16251315.72
15979516.05
15753844.60
16468082.14
16507076.37
16913867.73
16821345.74
16610328.88
16702647.89
16738607.26
16774259.00
16573034.72
16274481.09
16278985.47
16169482.01
16085495.91
16152732.32
16194893.03
16172992.91
16124877.15
16076005.15
15950913.57
15562574.32
15226272.90
14709816.15
13841088.46
13262108.34
13190106.91
13004365.19
12919268.02
13271656.80
13973548.10
15042087.25
15830840.62
16221488.03
15982334.28
16283374.43
16947709.77
17055771.36
16707764.87
16400611.61
16155759.97
15857065.42
15680744.27
16034129.61
16929747.47
16784920.87
17304007.03
17973137.97
17687641.11
17414728.63
17459237.58
17142461.67
17441396.27
17372637.70
17424484.25
17276942.70
17318838.26
17416177.85
17357682.72
17287934.94
17252533.07
17269463.82
17404864.51
17415521.37
17249556.22
16934529.93
16794435.08
16636039.19
16420374.61
16337846.60
16347384.06
16314170.27
16241840.39
16297686.05
16380251.65
15949260.58
15957682.75
15980409.26
15806384.31
15624932.87
15484328.19
15654751.10
15489243.18
15309290.60
15049724.57
15152148.46
14814926.58
14157721.67
14224547.01
14636843.05
15132937.84
15658873.34
16142846.88
16240616.21
16339867.36
16589337.89
16278126.25
16665448.08
16651106.15
16676658.28
16315117.82
16118372.17
16116444.94
16308647.49
15820047.20
15638190.65
15447698.67
14933755.02
14559238.08
14315295.08
14719275.27
14775990.85
14713410.98
15316188.42
15519041.80
15353825.01
15350961.96
15379625.98
15660696.64
16507396.29
17803075.45
17746310.02
17521355.29
17532115.05
17656510.09
17605679.92
17582306.39
17433648.09
17196963.14
16962488.46
16963817.46
17078143.75
16989007.57
16628297.43
16428979.58
16187631.59
16427816.56
16351077.92
16068982.34
15890673.32
15740281.49
15619904.58
15898869.38
16425975.86
16512983.16
16634225.72
16884142.24
17032329.30
16914188.08
16665345.61
16644412.83
16637475.16
16668457.76
16795695.67
16859836.97
16831658.72
16761916.20
16464720.57
16336625.34
16456304.22
15916389.00
15936160.51
15766659.57
15402926.01
15262719.70
15057910.64
14709794.46
14370307.96
14310796.60
14851227.72
15512048.05
15995641.84
15641899.62
15606243.81
15630369.67
15607541.45
15698626.60
16070191.91
16647914.04
17392389.01
17655831.63
17922442.12
18361841.02
17661665.34
17282831.81
17135551.85
16906862.39
16604713.26
16521055.47
16150185.74
16750872.91
16422760.44
16202625.02
15692309.42
15370173.99
15833027.16
15924899.81
15664639.18
15925339.15
15574838.85
15417366.82
15219142.06
15170676.75
15843701.82
15890735.12
16248640.55
16601649.95
16627786.03
16559329.60
16852187.83
16508744.42
16052729.75
15396492.16
15892429.83
16025548.10
15882344.14
16188173.14
16071038.83
15528875.55
15834693.36
16429767.15
16664880.55
17127924.71
17125907.30
16836624.17
17108670.11
16878763.87
16748504.25
16536301.83
16149298.03
16002125.36
15870074.88
15687768.57
15456497.59
15289711.78
15601469.24
15709271.12
15755337.88
15523881.98
14807636.70
15267423.03
14997254.87
14480986.28
14469531.40
14981961.63
15363467.74
15296493.21
14924527.38
15729795.51
15461464.90
15118109.35
15642021.89
16392698.46
16396193.57
16244637.59
15624312.63
15601902.76
16000918.47
16551888.87
16531783.24
16535507.86
16352839.23
16166395.59
15912465.91
15940496.07
16230707.11
16483038.72
16385305.30
16124447.24
15894683.31
15539245.62
15102182.41
14723448.20
15112782.28
15686070.84
16241871.35
16812398.57
17122750.38
17465652.05
17682404.23
17862887.66
17864662.86
16857318.24
17098136.29
17132252.64
17392340.90
17086286.23
17001107.79
17304734.15
17380933.27
16770326.73
16684507.65
16607112.69
16414772.63
16056622.07
15970152.12
16158779.86
16294679.31
15969406.14
16085338.08
15815286.07
15736655.53
15068152.44
15103322.66
15420217.16
15384415.95
15418907.79
15593168.59
15990603.30
16507962.13
16912446.61
16684084.91
16404181.01
16561786.55
16515909.36
16310885.13
16153981.95
15800649.38
15742743.30
15858401.35
15727810.92
15564662.23
16109513.42
16610377.54
16579191.24
16556821.52
16430306.13
16019654.75
15708368.28
14839493.33
13985840.24
13848304.47
13993898.14
13747258.58
12971998.84
12392917.37
11718705.94
11203994.30
11750794.94
13439199.56
14862844.14
16619460.09
17156236.26
17803825.60
18232244.26
18856777.33
18138789.48
18235910.06
18337444.71
18054801.87
17623757.13
17268382.29
17192709.04
17081705.45
16801488.43
16591562.22
16549888.56
16495009.28
16394226.89
16393277.10
16568509.47
17106306.16
16387386.57
15759493.24
15722830.75
15732099.60
15830797.69
15874598.20
16370908.53
16518414.39
16528955.95
16365928.78
16252190.92
16136208.37
16022514.56
15420772.15
15046534.58
14882066.62
14372004.58
14167760.26
14778169.64
15591562.68
16016942.22
16917820.57
17363925.39
17034562.50
16819606.42
16393735.00
15780503.74
15485754.42
15369467.47
15236235.78
14918466.70
14430920.60
14127981.95
13966922.90
14573041.01
15500870.10
15928233.95
16581303.42
16968566.09
17119730.09
17373535.84
17766805.32
17953696.17
17930977.80
16872416.39
17064636.11
16942846.86
16689319.93
16549484.12
16367098.17
16588236.64
16401033.35
16301468.22
16324003.39
16113897.89
15835231.56
15819346.28
15511682.31
15631818.72
16063826.95
15860912.35
15934250.19
16180931.55
16199401.54
16315728.31
16019736.67
15425370.09
15252617.47
14674864.76
15044483.98
15275600.21
15517575.97
15656712.39
15496838.01
15250470.01
15077155.74
14917883.60
14913467.12
14535105.90
14499204.63
14793899.77
14811184.98
14807645.44
15597128.30
15901617.58
15979334.62
16283648.78
16787060.88
17228335.67
17709203.42
17548963.08
17370319.32
17240666.38
17110676.71
16879667.02
16711247.18
16839761.35
16470576.96
16420481.54
16686163.65
16373174.63
16375908.53
16508979.86
16724232.46
16424560.33
16241063.90
16258252.96
16175798.15
16133288.44
16219739.71
15829878.57
15649811.24
15459755.56
15971941.41
15655427.04
15658946.22
15752607.56
15900391.22
15527881.26
14777150.58
14037551.67
13674718.02
13669083.24
14272130.14
14147039.94
14138287.86
14360435.22
14471588.02
14768951.49
14351196.04
13918573.19
13452195.76
13498782.06
14149891.92
15042913.37
16458306.76
17815062.06
19137837.63
18796133.92
18567508.39
18192200.52
17836065.54
17770203.24
17714486.02
17631246.50
16997960.38
16696794.19
16545409.45
16304400.24
16193990.64
16219509.24
16402324.74
16446274.24
16608376.61
16451271.13
16175785.22
16258079.15
16294818.83
16177966.80
16125445.23
15634029.41
15496915.03
15954008.78
16163908.93
15387076.32
15852189.16
16018535.90
15793031.42
15876224.08
15669901.66
16025537.03
15771399.52
16016231.22
16075611.20
15519378.30
15419733.97
15292068.31
15267556.66
15131115.24
14869032.25
14481114.52
14153934.88
14216255.36
14090631.77
13822091.74
13871306.71
14069803.69
14189809.29
14671319.53
14593420.74
15009678.23
15960379.10
16108460.25
16231704.74
16439191.02
15735605.68
15490429.03
15712133.80
15842742.35
16292424.35
16903708.93
17392400.84
17554183.89
17360882.78
16924749.91
16533934.65
16381859.58
15954441.35
15414764.91
15154863.70
14788403.79
14113309.99
13078992.99
13278330.57
13185908.22
14307084.01
14468079.55
14593212.29
15116838.76
15774466.78
17095235.32
17404015.89
17602009.25
18048104.83
18071478.57
17983854.06
17498826.21
17346062.39
17823178.41
17715381.74
17405758.24
17354426.96
17296702.76
16956821.63
17212044.80
16942972.10
16850494.91
16311927.39
16340476.97
16416367.23
16417913.73
16476943.99
16486964.69
16493948.53
16484024.83
16426559.78
16255495.27
15678719.66
15939766.17
16122742.72
16098915.27
16004530.25
16040686.50
16078376.55
16324801.55
16025870.81
15987312.20
16277935.88
15157707.14
15056308.43
14933188.45
14161225.25
14175897.51
14355764.67
14619683.19
15061645.52
15216694.73
14824765.12
14815448.50
15286982.76
15679536.99
16423544.43
17147252.22
17224173.42
16963029.49
16728316.78
16517404.42
16370286.36
16616967.32
16451719.60
16213300.26
16068378.13
16117994.59
16256407.30
16173768.04
16209162.44
16137847.82
15973410.03
15899855.60
15899891.72
16005955.50
16332682.99
16238481.15
15641092.26
15631041.70
15974355.03
16346877.94
15956486.82
16108595.30
16225554.68
16360030.03
16297463.17
16167028.87
16271465.95
16271704.00
16198032.51
16180201.37
16066698.26
16029069.06
15888305.58
15901902.18
16207055.52
16342228.94
16048350.86
15957549.52
15643440.91
15697841.34
15855853.24
16077874.52
15895837.83
15818005.31
15836793.59
15828041.35
15821978.01
15858099.35
15833966.26
